0.0484866024316086,0.0316633
-0.0296340430419106,0.2657352
-0.0198640635154299,0.2977022
0.0143199785110508,0.3298075
0.004558708037532,0.3772933
-0.0100853749359873,0.4086281
0.0240986670904935,0.4385632
0.0436342716169742,0.4494701
-0.000306686356545072,0.4606928
-0.176083581830064,0.4737639
0.448920772696416,0.4867458
1.6061516897229,0.4976787
-0.556929893250622,0.5338572
0.048543211275859,0.5489118
0.33663350330234,0.5639824
0.28780973282882,0.5770093
0.185275024855301,0.5900238
-0.034447183118218,0.606254
-0.249286578591737,0.6183558
-0.0979150365652561,0.6293685
-0.0930278695387754,0.6434717
0.253656172487705,0.6524965
0.336668339514186,0.6655855
-0.112546055959333,0.6785909
0.805427048567148,0.69164
-0.532459221906371,0.7026379
-1.37718142987989,0.7387119
0.74196354964659,0.752728
0.307397591673071,0.7657441
0.146269133699552,0.7767457
0.0779141132260324,0.7908432
-0.0050893447474869,0.8029706
-0.0490303027210057,0.8139054
-0.029494698194525,0.8480222
-0.0148419061680443,0.8632528
-0.0294859891415635,0.8763221
-0.0050675721150828,0.887342
0.107241469911398,0.9257221
-0.0197073005621213,0.936685
-0.12224200853564,0.9497431
-0.156417341509159,0.9607655
-0.141764549482679,0.9758835
-0.068518007456198,0.9908522
-0.0343339654297172,1.0018692
0.0584438265967635,1.0149449
0.0584481811232442,1.0259055
0.00474159814972541,1.0380031
0.0535740776762061,1.051009
-0.0489606302973131,1.0640422
0.0145202867291676,1.0750727
-0.000123796244351659,1.0893152
0.0194118082821291,1.1002553
0.0828927253086098,1.1133028
0.107311142335091,1.1242981
0.0633701843615717,1.1384943
-0.141703586111948,1.1494393
0.00478514341453318,1.1625921
1.43057074794101,1.1736646
0.615145414967495,1.1857505
-1.78719398050602,1.1987656
-1.09383025097954,1.2128875
-0.0782008964530627,1.2279152
0.327076895573418,1.2409199
0.288018750099899,1.2518938
0.239194979626379,1.2628768
0.16107433415286,1.2769296
0.117133376179341,1.2880113
0.0390127307058221,1.3030401
-0.0195766647676971,1.3181507
-0.00492387274121642,1.3290714
-0.0683960807147357,1.3421909
-0.087922976188255,1.3532117
-0.0683873716617742,1.3662189
0.00974198286470651,1.3813618
0.0146291498911877,1.3975068
0.0488131919176684,1.4105433
-0.00977620355585085,1.424748
-0.0537171615293701,1.4357545
-0.0878924945028894,1.4488092
-0.0341772024764087,1.4597779
0.00488965205007208,1.4748769
0.122081506576553,1.4919592
0.112320236103034,1.5050041
1.99031295147201e-05,1.5191411
-0.0292726173440045,1.5301256
0.0195598621824762,1.5432008
-0.00973265829104308,1.5552849
3.73212354376484e-05,1.5662438
-0.00972394923808118,1.5793115
-0.0487820947116004,1.5902848
-0.0341293026851197,1.6033339
5.47393413610209e-05,1.6185114
0.0537700313678418,1.635641
-0.00970217660567751,1.6485528
-0.0145806345791968,1.6616126
-0.00481065505271561,1.673581
0.00984213697376513,1.7130343
-0.0194503834997541,1.7280294
-0.0243288414732734,1.7390082
-0.0194416744467927,1.7541175
-0.0145545074203119,1.7671496
0.0440435971061688,1.7792275
-0.00478017336735004,1.7923024
-0.0291898813408693,1.8033297
-0.0243027143143886,1.8185412
0.0147641402120922,1.8346658
0.0196513072385729,1.8497739
0.0294212867650536,1.8627935
-0.0779962337084656,1.8748468
-0.190296566681984,1.8869326
1.4600984128445,1.8979317
1.58705589237098,1.9131669
-2.05551787810254,1.9272007
-1.17172446107606,1.9401961
-0.0437904190495808,1.9522516
0.3859014354769,1.965329
0.381022977503381,1.9773488
0.283371082029862,1.9883915
0.146656686556343,2.0004586
0.0880672910828233,2.0135181
0.024595083109304,2.0447626
-0.0388771248642152,2.0598888
-0.0242243328377345,2.0759596
0.0197253341887467,2.0869851
0.0099640637152274,2.1000253
0.0392652932417081,2.1131108
0.0392696477681889,2.1406536
-0.0339681852053304,2.1545728
-0.0974403931788497,2.1685867
-0.0827876011523689,2.1805782
-0.0193066841258878,2.1926608
0.000228920400592969,2.2068217
0.0490613999270737,2.2198694
0.0197688794535544,2.2338339
0.0344216714800352,2.2459027
0.000246338506515897,2.2599982
-0.0290461819670034,2.2760934
-0.00462776494052219,2.2880783
-0.0192718479140415,2.3011205
0.0295606316124393,2.3172927
0.02468217363892,2.3344105
0.000272465665400734,2.3504437
0.0198080701918815,2.3635106
-0.0094844502816378,2.3796738
0.0100511542448434,2.3977937
-0.00947574122867589,2.4117564
-0.00947138670219516,2.4258028
-0.0192326571757144,2.4378876
-0.0143454901492337,2.4519067
0.00519011437724703,2.4649513
-0.00457115609627223,2.4790965
-0.0143324265697911,2.4921322
0.000320365456689675,2.5042214
-0.0143237175168296,2.5172216
0.0296259495096511,2.5292737
-0.0191978209638681,2.5433777
-0.0387247164373874,2.559513
-0.0436031744109067,2.5755883
-0.00941913238442549,2.5906267
-0.0142975903579448,2.6035715
-0.043590110831464,2.6175956
-0.175421693804983,2.6336501
1.3040748482215,2.6496638
0.610719827747978,2.6656672
-2.27501800522554,2.6816765
-0.42442771319906,2.6956409
0.249404766327421,2.73627
0.122455995853902,2.7502474
0.0589837878803823,2.7851951
-0.024019670093137,2.816538
0.00528155943334374,2.8305688
0.000403101459824473,2.860645
-0.00935816901369435,2.8747459
0.0101774355127864,2.907337
-0.116771334960733,2.9223121
-0.0728216679342522,2.9353078
-0.00934075090777142,2.9483491
0.0150776661187093,2.9633897
0.04437889564519,2.9764306
0.0102035626716712,2.9884565
-0.00444052030184805,3.0015012
-0.0190846032753673,3.0165042
0.0102166262511134,3.0305873
-0.0141930817224059,3.0477257
-0.0141887271959251,3.0617927
-0.00930156016944439,3.0939212
-0.00929720564296321,3.1079146
0.000472773883517519,3.1420619
-0.0190541215900017,3.1569436
-0.014166954563521,3.1730145
-0.0239282250370403,3.1869857
-0.0239238705105596,3.2220411
-0.0288023284840788,3.2381095
-0.0190323489575976,3.2520796
-0.00437955693111691,3.266212
0.0102732350953638,3.2801732
-0.0141364728781554,3.3013931
0.00539913164832528,3.3153751
-0.033659013825194,3.3488319
0.0200562782012867,3.378837
-0.0287674922722321,3.3927805
-0.145950637745751,3.4057776
0.225147466780729,3.4188338
1.76812057130721,3.4360084
-1.65960944916631,3.4510372
-1.40569884463983,3.4651498
-0.106866365113348,3.4872627
0.366770801913133,3.5023005
0.264236093939614,3.5163019
0.161701385966095,3.5344289
0.0298698029925757,3.5514584
-0.0189539674809436,3.5655213
0.00546444954553715,3.5965564
-0.00917963342798211,3.6115438
-0.00429246640150138,3.6425827
0.000594700624979794,3.6566415
0.000599055151460526,3.6736864
-0.0726387778220587,3.6877799
-0.126345360795578,3.7230318
0.0396746187309027,3.7540876
-0.00914915174261655,3.7690962
-0.0189104222161358,3.7852045
-0.00914044268965464,3.8001988
0.0201607868368261,3.8152295
-0.00913173363669317,3.82927
-0.0140101916102124,3.8646508
0.000642600416268291,3.8797065
-0.00423585755725098,3.8937272
-0.0286455655307702,3.9068033
-0.0139927735042891,3.9218403
-0.0139884189778083,3.9359176
-0.0237496894513276,3.9509281
0.0250827900751531,3.9660351
0.0250871446016339,3.9811728
0.00556024912811459,3.9952006
-0.00420102134540468,4.0093566
-0.0237279168189235,4.0234141
0.000690500207557232,4.0560265
-0.00907077026596204,4.0719389
-0.0285976657394813,4.0869691
0.0251176262869994,4.1014979
-0.0285889566865198,4.1164631
0.0153607103399609,4.1513118
-0.00416618513355793,4.1823593
-0.189708705607077,4.1972396
0.767326898919404,4.2134526
1.31908906594588,4.2304359
-2.18676595452764,4.2454475
-0.721917850001154,4.2627224
0.293711504525326,4.2779223
0.376723671551808,4.3059248
0.142353026078288,4.3210861
0.0495839431047691,4.3551172
-0.00412263986875017,4.3852837
-0.00411828534226943,4.4001871
0.0447141941842113,4.4172996
0.049601361210692,4.4353604
0.0105432157371732,4.4503523
0.0398444452636539,4.4813755
-0.0724558877098653,4.497333
-0.0187405956833846,4.5302973
0.0496231338430961,4.546455
0.0252134258695769,4.5737423
0.0154521553960576,4.588692
0.00569088492253877,4.6048089
0.0105780519490195,4.6198304
-0.0138316560244998,4.6379516
-0.013827301498019,4.6702232
0.000825490528461703,4.6872176
-0.00405296744505756,4.7022365
-0.0235798629185768,4.7172674
0.0106041791079043,4.7333692
0.0154913461343851,4.7484173
0.0154957006608658,4.7635573
0.0203828676873465,4.7806893
-0.00402684028617273,4.8118393
-0.004022485759692,4.8268078
-0.0235493812332113,4.8438711
-0.0137794017067301,4.8589375
-0.0284234846802494,4.876095
-0.0284191301537686,4.8920741
-0.00400071312728789,4.9102885
-0.0137619836008072,4.9263164
-0.0479373165743264,4.9424196
-0.126057962047846,4.9726436
-0.360428607521365,5.0047214
-0.213939877994884,5.0215945
0.372001976531597,5.0530417
0.147396956058078,5.0842764
0.000916935584558409,5.116269
0.0106869151110391,5.145441
0.0106912696375199,5.1624572
0.044875311664001,5.1785257
-0.00883127130951822,5.1955392
-0.0137097292830375,5.2116452
-0.0722991247565568,5.227773
-0.155302582730076,5.2586598
0.0156002092964047,5.2889157
0.0302530013228854,5.3059999
0.00584329334936662,5.33802
0.00584764787584735,5.3692824
-0.0185620600976719,5.3873336
-0.00390926807119119,5.4154397
0.0156263364552895,5.431439
0.0205135034817703,5.4657319
0.030283483008251,5.4838274
0.0351706500347322,5.5268654
-0.0283015579387871,5.5579004
-0.0234143909123063,5.5738681
-0.0136444113858256,5.5910027
0.00589119314065512,5.6071001
-0.00387007733286415,5.6231546
0.00101708969361658,5.6401651
-0.125931680779902,5.684461
-1.17084920125342,5.7144189
-0.164985471726941,5.7463947
0.31353450779954,5.7795768
0.0645154248260207,5.8107789
-0.0233708456474986,5.8420235
-0.0136008661210179,5.8722972
0.0303488009054633,5.9034588
0.00593909293194406,5.9194252
-0.0770643650415752,5.9354538
-0.135653760515094,5.9515369
-0.0770556559886137,5.9836426
0.054784636037867,6.0156593
0.0254921155643477,6.0477381
0.00596522009082889,6.0658281
0.0206180121173096,6.1092994
-0.0233229458562096,6.1412565
-0.00378734132972891,6.1572802
-0.0135486118032482,6.1754011
-0.0281926947767674,6.2055147
-0.00377427775028671,6.2365836
-0.0184183607238055,6.2557111
-0.00864838119732481,6.2827366
0.0353012858291559,6.3153953
-0.00863967214436334,6.3323877
0.0157787448821174,6.3624863
-0.00863096309140188,6.393496
0.465006203935079,6.4096711
1.71501055846156,6.4399988
-1.06330539951196,6.4707711
0.367363017514521,6.5020188
0.118343934541002,6.5211102
0.025574851567483,6.5472941
0.0109307685939637,6.5783891
-0.0330101893795556,6.6093797
-0.0134745848530744,6.640512
0.0255922696734063,6.6716898
-0.125770563300113,6.7039411
-0.0085787087736322,6.7219134
0.0256053332528485,6.7636333
-0.00368718722067074,6.7817166
0.01584841730581,6.8098183
-0.0183269156677088,6.8430674
-0.0427366236412281,6.8879876
-0.0232010191147474,6.9180524
-0.0183138520882666,6.9503407
0.0109873774382141,6.98038
-0.00365670553530517,6.999073
-0.00365235100882444,7.0181493
-0.0231792464823433,7.0586489
-0.0182920794558625,7.0918639
-0.0182877249293818,7.1099143
-0.0475802454029011,7.1525229
-0.28683370337642,7.184192
-0.65792309884994,7.2021821
-1.72237186932346,7.2463042
0.352827797703022,7.2759883
0.074511839729503,7.3082208
-0.0133744307440162,7.3382255
-0.0280185137175355,7.3704665
0.0208139658089452,7.4006714
0.00616988283542597,7.4322873
-0.0768335751380933,7.4643777
-0.00846984561161213,7.4844268
0.0403626339148686,7.5115783
-0.00357832405865066,7.5427964
-0.0182224070321699,7.5629705
-0.0035696150056892,7.6041488
0.0110831770207915,7.6362167
-0.0230921559527277,7.6552743
-0.00843936392624656,7.6810105
0.0208618656002342,7.7132456
0.0208662201267149,7.7323033
0.0159877621531956,7.7593825
-0.0133047583203236,7.7904662
0.0111136587061571,7.8214697
0.0160008257326378,7.8527979
-0.018174507240881,7.8839284
0.0208923472855997,7.91513
0.0208967018120805,7.9473126
1.72500261883856,7.9795076
-1.71737583913496,8.0097192
0.348058202891523,8.0406876
0.225992244918003,8.0717388
0.0160356619444846,8.1029828
-0.0327881085290347,8.1209799
-0.018135316502554,8.1400658
0.0160487255239268,8.1825166
0.0404671425504075,8.2136343
-0.0815988154231118,8.244953
-0.00346946089663103,8.2740943
0.0404802061298501,8.3064074
0.00630487315633088,8.3373794
-0.0181048348171884,8.3673538
0.0209620197092923,8.3854377
-0.0180961257642269,8.4306833
0.0112051037622538,8.4635402
-0.00832179171126546,8.4935314
-0.0132002496847843,8.526559
-0.0327271451583035,8.5568047
0.00145689686817718,8.5888429
-0.00342156110534209,8.6189918
-0.0278312690788614,8.6502455
0.0307668354476194,8.6972883
0.5776461899741,8.7291136
-1.73191976799942,8.7487369
-0.589337288472938,8.77584
0.367698316053543,8.8068915
0.152858920580023,8.8271977
-0.0131523498934958,8.8473352
0.0259145046329849,8.8849109
0.00638760915946568,8.9167465
0.0454544636859469,8.9477093
0.0210447557124276,8.9789991
-0.130318077261092,9.0101607
-0.0180090352346109,9.0421827
0.0259406317918698,9.074203
0.0161793613183505,9.1073575
0.00641809084483125,9.1523547
-0.0277572421286876,9.1723825
-0.00333882510220684,9.2163789
0.0210795919242739,9.2465522
0.0113183214507546,9.2777564
-0.00332576152276465,9.3108583
-0.0423839069962839,9.3298052
-0.00331705246980318,9.3489902
0.021101364556678,9.3891061
-0.164441155916841,9.4222146
0.226188198609639,9.4523117
-0.46716682186388,9.4834332
0.362915657662601,9.516448
0.104130949689082,9.5484769
0.0162446792155624,9.5806618
-0.00816502875795644,9.6249612
0.00648776326852429,9.6559949
-0.047218819704995,9.6757177
-0.115573840178514,9.7172795
0.0260320768479665,9.749505
0.0650989313744472,9.7815431
0.026040785900928,9.827038
-0.0374314220725909,9.8736149
-0.00813019254611014,9.9205512
-0.0178914630196294,9.9527123
-0.0520667959931487,9.9847277
-0.0325311914666679,10.0168386
0.0260669130598128,10.0489296
0.00654001758629352,10.0801438
0.0163099971127747,10.1111845
-0.0959903358607446,10.1423604
1.76924839366574,10.1624125
-2.03934100180778,10.2048394
0.367889915218698,10.2359023
0.148167707245178,10.2686231
-0.0129607507283409,10.3164847
-0.00319077120185973,10.3606437
0.035876083324621,10.3929787
-0.115486749648898,10.4141496
-0.115482395122418,10.4539615
0.0261235219040632,10.4859766
-0.0227002485694561,10.531316
0.00171816845702466,10.5512436
-0.0178087270164942,10.5931926
0.00172687750998657,10.6252363
-0.0129172054635327,10.6565117
0.00661839906294803,10.6887563
-0.0422053714105712,10.7197344
-0.0373182043840905,10.7504814
-0.0177825998576098,10.7824977
0.0310498796688714,10.8145324
0.00175735919535214,10.8346323
0.0603554637218329,10.8629161
-0.159366744251686,10.8830148
1.40802042277479,10.9041477
-1.06267834769872,10.9263037
-0.921072430672244,10.9484255
0.407056923854237,10.9716097
0.304522215880718,11.0017863
0.0359718829071984,11.0480198
0.0213277999336792,11.0941445
0.0115665294601599,11.1253336
-0.00796036601335937,11.1473992
-0.100729448986879,11.1712012
-0.100725094460397,11.2043137
0.0555292600660833,11.2364597
0.045767989592564,11.2665471
0.0360067191190447,11.2975462
-0.457152988854475,11.3195442
0.0311326156720062,11.3616096
0.382699470198487,11.3826722
-0.0421008627750319,11.4256001
-0.105573070748551,11.4576157
-0.00791246622207042,11.4777494
-0.0127909241955897,11.5059933
0.036041555330891,11.5371634
-0.00789940264262823,11.5844181
0.0848783893838525,11.6303788
1.76945305641033,11.6603962
-1.67780821406319,11.6945828
0.382743015463295,11.7408531
0.0311848699897759,11.7708775
-0.0322873379837434,11.8030531
0.00189670404273734,11.8341135
0.0604948085692181,11.8660596
0.0556163505956992,11.8872194
-0.10551210737782,11.9152831
-0.0322655653513393,11.9465928
0.0409809766751414,11.9765176
-0.00784279379837782,12.0087688
-0.0176040642718971,12.0553497
-0.0127168972454164,12.0863936
-0.0224781677189352,12.1175342
-0.00782537569245445,12.1502633
-0.00782102116597372,12.1943034
-0.032230729139493,12.2274186
-0.0126951246130123,12.2604519
-0.0761673325865315,12.2924534
-0.00780360306005079,12.3235918
-0.14451799853357,12.3556034
1.23243948099291,12.4028087
0.216818835519392,12.4511947
0.114284127545873,12.4823281
-0.00289901792764669,12.5143382
-0.027308725901166,12.5474739
0.0312893786253148,12.5945344
-0.00776876684820405,12.6262835
-0.110303474821723,12.6572459
0.0557165047047574,12.6891541
0.00200992173123815,12.7358767
-0.0370482237422811,12.7661412
0.0361983182841996,12.8124357
-0.00285982718931965,12.8437471
-0.0272695351628385,12.8769671
-0.00773393063635774,12.9225634
-0.00284676360987701,12.9542222
0.00204040341660372,13.0003779
-0.0126036795569155,13.0453958
0.00204911246956518,13.0686325
-0.0516574705039541,13.1099799
-2.27333280347747,13.1410924
0.265734051049008,13.1721986
0.216910280575489,13.2051664
0.0216021351019693,13.2363922
-0.00769038537154998,13.266495
0.0118452191549308,13.2894653
0.0118495736814115,13.3147349
0.0313851782078927,13.34656
-0.0906807797656266,13.3916732
0.0118626372608541,13.4239455
-0.00278144571266514,13.4539091
-0.00765990368618441,13.5019751
-0.0174211741597037,13.5462785
-0.00276838213322295,13.5772887
-0.0222952776067418,13.610571
-0.027173735580261,13.6396189
-0.00763813105378031,13.6728096
0.00701466097270043,13.7057979
-0.0173950470008188,13.7358606
-0.0320391299743381,13.7678982
0.00214491205214262,13.8009503
-0.261522608421376,13.8321309
0.260942683605105,13.8783
0.300009538131585,13.908474
0.212123267658066,13.9557908
-0.00759894031545327,14.0014386
-0.0124773982889725,14.0315337
0.0461207062375082,14.0625859
-0.0271171267360106,14.0945371
-0.12965183470953,14.1265725
0.0217197073169508,14.1587546
0.0217240618434316,14.1888884
-0.0173340836300877,14.2340397
0.021732770896393,14.2659602
0.00220587542287376,14.2992194
0.0168586674493549,14.3282474
-0.0319651030241643,14.3623528
0.0022189390023164,14.4075054
-0.0417220189712029,14.4396821
-0.0173036019447221,14.486109
0.119419502581759,14.5172952
-1.42354489289176,14.5637839
0.422162586634721,14.6088424
0.0315419411612012,14.6398873
-0.00751620431231803,14.6707857
-0.0172774747858373,14.7169665
0.0364378172406434,14.7640319
-0.124690640732876,14.7950568
-0.0221472237063951,14.8280804
0.00715400582008607,14.8601352
-0.0319041396534332,14.8901616
0.0266939648730475,14.91426
-0.00748136810047173,14.9384587
0.012054236426009,14.9625384
0.00229296595248973,14.9866712
-0.00746830452102953,15.0189238
-0.0172295749945484,15.0500665
0.0267200920319324,15.0962765
0.0218416340584131,15.1264654
-0.0220993239151062,15.1567309
-0.00256371938862543,15.1878658
0.0120890726378553,15.2179864
-0.266226885335664,15.2481342
0.441785281690817,15.2963503
0.358781823717298,15.3442188
0.0658174282437787,15.374281
-0.00742040472974059,15.4213932
0.00234957479674014,15.4455692
0.0170023668232209,15.4697847
0.0121239088497016,15.5153459
-0.0611139241238172,15.5464218
0.0609607429026635,15.5776572
0.0170197849291442,15.608861
-0.00250711054437502,15.6403721
-0.00250275601789429,15.6854623
-0.00249840149141356,15.7320696
-0.00249404696493283,15.7800011
0.0170415575615483,15.8251853
0.0365771620880291,15.854391
-0.0122466083854902,15.887494
-0.0317735038590095,15.9336065
-0.202667586832529,15.9590016
1.75046176769395,15.9820443
-2.09230731527957,16.0272485
0.339337664246914,16.0742689
0.0219592062733946,16.1042824
-0.00245050170012462,16.1503939
0.0170851028263561,16.1972118
0.0219722698528368,16.2293439
-0.100093688120682,16.273623
0.0463950414057983,16.3059028
-0.00242872906772096,16.3520344
-0.0121899995412398,16.4005659
-0.0170684575147591,16.4949109
0.0366468345117217,16.5425816
-0.0121769359617976,16.5737301
-0.00728976893531685,16.6186663
0.0317770855911639,17.2352039
-0.0219294973823554,17.3131303
-0.251417330355874,17.3585928
-2.22406922582939,17.389638
0.251521066197087,17.4194206
0.236876983223568,17.4526093
-0.00725928724995129,17.497999
-0.00725493272347055,17.5312829
0.0269291093030102,17.5782882
-0.0560743486705086,17.6094739
-0.0902496816440279,17.6413612
-0.0121203271175472,17.6886897
-0.00723316009106645,17.7347555
-0.0462913055645857,17.7667939
-0.016990076038105,17.8129051
-0.0121029090116243,17.8600962
-0.0316298044851431,17.8911979
0.0123198625413377,17.9375948
-0.0413867204321816,17.9685594
-0.0120854909057009,17.9997966
-0.22692488637922,18.0299296
0.935188843147261,18.0632476
-0.485705239826259,18.1085658
0.236955364700222,18.1425909
0.0269987817267032,18.1978099
-0.012059363746816,18.2753202
-0.0901800092203353,18.3185243
0.0270118453061454,18.3638218
-0.00228067516737385,18.4097576
-0.0315731956408931,18.5173243
0.0123764713855881,18.5655809
-0.0217988615879312,18.6447418
-0.15851325706145,18.691244
-2.05304015253497,18.7381145
0.398136076991511,18.7692858
0.0758748065179917,18.8004134
0.00751978604447245,18.8468451
0.0368210155709536,18.8927107
0.00752849509743436,18.939122
-0.129185900376085,18.9693972
0.0417168916503958,19.0008818
0.0710181211768766,19.0490826
0.0124287257033573,19.0803716
0.017315892729838,19.1125981
-0.0217422527436808,19.1580173
0.0222074142827999,19.1892109
-0.0363819811907193,19.2204395
-0.0266120016642386,19.2675609
-0.0900842096377579,19.2997679
1.77027170738872,19.3308741
-1.3351926880848,19.3760039
0.300553853941685,19.4082609
0.0515347709681655,19.4524354
-0.0119374370053538,19.4834453
0.032012230021127,19.5315214
-0.0216943529523923,19.560297
-0.129111873425912,19.5914277
0.0173768561005692,19.6255131
0.0417952731270503,19.6578422
0.00761994015353107,19.6893298
-0.0119069553199882,19.7194518
0.00274583670649253,19.7516438
-0.0314294962670267,19.7976856
0.002754545759454,19.8297761
0.0222901502859347,19.8619501
-0.0314164326875841,19.9081038
-0.00211520316110336,19.9402186
-0.236485848634623,19.9729995
-0.646637744108142,20.0178807
0.422702547918339,20.0532124
0.15903502744482,20.096309
-0.0216246805286997,20.129757
0.0223249864977815,20.1742691
0.00279809102426221,20.2073062
-0.0509084919492571,20.2547878
0.0565177375772237,20.2996983
0.0467564671037044,20.3463369
0.0174639466301851,20.3926965
-0.0264770113433341,20.4259547
-0.016707031816853,20.469703
-0.0264683022903722,20.516839
0.0125985522361085,20.5499018
-0.00692834323741076,20.5819774
0.03213851128907,20.6151333
-0.202232134184449,20.6594225
-2.12605590465797,20.6926508
0.251878137368513,20.7397081
0.124929366894993,20.7717715
-0.0166678410785259,20.8027975
-0.0313119240520452,20.8519363
-0.0166591320255645,20.8862475
-0.0606000899990837,20.9290206
-0.016650422972603,20.9611813
0.0126508065538782,20.9943499
-0.00199327641964109,21.0390036
-0.0117545468931604,21.0718796
0.0126638701333204,21.1189445
-0.0459255253401989,21.1652283
-0.00197585831371816,21.199277
0.0273253712127626,21.2440234
-0.00684996176075625,21.2771422
-0.0117284197342755,21.321383
1.58007280979221,21.3544588
-1.64746189818131,21.3876519
0.374026831345167,21.4328996
0.0712968108716474,21.4671266
-0.0165894596018719,21.51134
-0.00681948007539068,21.5455969
0.02248174945109,21.5888679
-0.123998271022429,21.6220209
0.0127248335040515,21.6680614
-0.0458645619694678,21.7010727
-0.011680519942987,21.7474744
0.00785508458349371,21.7813962
0.00297662660997489,21.8264826
-0.0409643313635444,21.8736238
-0.0214287268370636,21.9197649
-0.0165415598105829,21.951955
-0.0311856427841022,21.9861613
1.63874058674238,22.0313555
-0.0946534962311407,22.0784852
0.16413992079534,22.1137957
0.00789427532182119,22.1558384
0.00301581734830192,22.187992
0.0323170468747827,22.2332143
-0.0751004735987366,22.2673855
-0.0653304940722559,22.310263
0.0469785479542248,22.3442884
-0.011610847519294,22.3886391
0.0128075695071868,22.4248933
-0.00183651346633251,22.4661154
0.00793346606014822,22.4993065
-0.00182780441337105,22.5435154
0.00305936261310968,22.5776617
0.0177121546395904,22.6118031
1.41908369666607,22.6540623
-0.836771323807448,22.689101
0.393701780719033,22.7321823
0.0421436352455138,22.7643602
0.0274995522719945,22.7974838
0.0177382817984753,22.8415851
0.017742636324956,22.8879345
-0.0994405091485628,22.9226211
0.0665794703779179,22.9664428
0.00799007490439863,23.0004505
0.0128772419308794,23.0466886
0.00799878395736009,23.0808858
0.00800313848384082,23.1242877
-0.00175813198967845,23.1582292
-0.0310506524631973,23.2003592
0.0177818270632835,23.248689
-0.177526318410236,23.2948044
-2.08670165138376,23.3418832
0.344943328142726,23.3759948
0.0226820576692064,23.4183485
-0.0114932753043129,23.4523635
-0.0066061082778317,23.4976952
0.022695121248649,23.5430968
-0.0700739617248702,23.5782807
0.0568835178016105,23.6203604
-0.0163543151719088,23.6565261
-0.00170152314542804,23.6985966
0.0178340813810527,23.7467501
0.00318999840753387,23.7940846
-0.0065712720659854,23.8280738
-0.00656691753950467,23.8713093
-0.00656256301302394,23.9167977
-0.143276958486543,23.9509267
1.28739145853994,23.99538
0.227825500566418,24.0304133
0.257126730092899,24.0766567
-0.0260720403806198,24.1218688
0.0325260641458609,24.1580648
0.00323354367234163,24.2005518
-0.0944183518011776,24.2462844
0.0276563152253031,24.2813859
0.0325434822517838,24.325588
-0.060225600721735,24.3599552
-0.0260415586952543,24.4015999
-0.0504512666687735,24.4377887
0.0081468378577072,24.4781705
-0.0162628701158121,24.5246116
-0.0162585155893313,24.5616812
-0.0309025985628506,24.6048032
-0.0601951190363694,24.6519997
-1.17347201450989,24.6975014
0.359735465016592,24.7335512
0.159544507043073,24.7778703
-0.0357636384304465,24.812897
-0.0211108464039658,24.8549442
-0.00157524187748503,24.8911793
-0.0796958873510039,24.9345069
-0.00156653282452313,24.9705428
0.00332063420195761,25.0148525
0.0130906137284383,25.0602686
-0.0210847192450809,25.0943521
-0.0259631772186002,25.1393318
0.00333805230788053,25.1734255
0.0179908443343617,25.219756
-0.0405985511391576,25.2548809
-0.0210629466126768,25.2970218
0.813902345413804,25.3310796
-2.07671830005972,25.3752728
0.369575116966765,25.4102855
0.0473138464932461,25.4534291
-0.0308067989802727,25.4874729
0.00337724304620801,25.5227027
0.0180300350726887,25.5658188
-0.143098422900831,25.6139394
0.0522184316256502,25.6480824
0.0278087236521309,25.683211
0.0131646406786117,25.7255096
0.00340337020509285,25.7618014
-0.0112407127684264,25.8030426
0.0278261417580543,25.8370346
-0.060060128715465,25.8823646
0.0229520383110158,25.9278015
0.125495455337497,25.9619054
-1.93016425263602,26.0068082
0.438004164390458,26.0550768
0.0327350814169391,26.0912727
0.00344256094341988,26.1325061
0.0571578529699006,26.1788824
-0.0307284175036187,26.2151078
-0.0697865629771379,26.2569708
0.0864677915493428,26.2942392
-0.00141847892417601,26.3353332
-0.00629693689769528,26.3703424
-0.0209410198712146,26.4065043
0.0181258346552662,26.4467634
0.0474270641817469,26.4840243
-0.0453420187917724,26.5253295
-0.00627516426529162,26.5716161
0.77009637776119,26.6069216
-2.24259458021233,26.6492369
0.413659774314151,26.6954152
0.0230391288406318,26.7329044
0.0279262958671125,26.7721953
0.0230478378935932,26.8185097
-0.0208931200799261,26.8536968
-0.0892481405534449,26.8977717
0.0621234014730359,26.9350197
-0.0208800565004834,26.9750248
-0.00134445197400268,27.024139
0.00354271505247805,27.0612721
-0.0159841804210412,27.1046102
-0.00133138839456048,27.1504002
-0.0355067213680793,27.1875955
-0.0257367418415986,27.2298205
-0.191748012315118,27.2751822
-2.34506397028864,27.3113925
0.374666946737844,27.3546642
0.0963509887643244,27.3896847
0.00846471829080508,27.4360159
-0.0208278021827137,27.4800476
0.047535927343767,27.5163115
-0.103826905629752,27.559684
0.0426618238967285,27.6090933
-0.0305760090767908,27.6556336
-0.00615759205031008,27.6917956
0.0133780124761707,27.7311624
-0.0110316954973482,27.7787341
0.00362109652913256,27.8260293
-0.00125736144438671,27.8632172
-0.025667069417906,27.9033931
-0.0207799023914252,27.9517176
1.23410726463506,27.9867818
-0.430927443338464,28.0288501
0.257553473688017,28.0732392
-0.00611404678550187,28.1104196
-0.0354065672590211,28.1507124
0.00366028726745959,28.2001019
-0.11840567070606,28.2372081
-0.0402763161795789,28.2774276
0.00855616334690179,28.3227984
-0.025619169626617,28.3580122
-0.0060835651001363,28.4010472
-0.0402588980736556,28.4373471
-0.0158404810471748,28.4791867
0.0085779359793059,28.5244599
-0.0353630219942134,28.5717936
-0.0207102299677326,28.6187456
0.428512874558749,28.6652646
-1.03144370841477,28.7014077
0.34551377111171,28.7449416
0.0232525006381907,28.7913537
-0.0402197073353285,28.8282817
-0.0060356653088478,28.8696823
-0.0450938107823671,28.9070515
-0.0743863312558859,28.9480449
0.0330398982705948,28.9841301
-0.0157838722029244,29.0265048
-0.0157795176764437,29.0726214
0.00375608685003703,29.1198366
-0.0157708086234822,29.1550026
0.0184132334029985,29.1993816
-0.0255277245705203,29.2458265
0.00377350495596041,29.2809598
0.789910671982441,29.3252393
-0.728639660991078,29.3624531
0.350466256035403,29.4056835
-0.0108575144381167,29.4522576
-0.00597034741163593,29.4994649
0.0526277571148452,29.5454039
-0.113383513358674,29.5825474
0.0477536536678067,29.6228375
0.0428751956942874,29.6590594
0.00869986272076817,29.7021672
-0.0352410952527511,29.7383577
-0.0108226782262704,29.782798
0.0233613638002108,29.8287415
-0.00104834417330846,29.8749145
0.00383882285317227,29.9112207
-0.015688072620347,29.9521803
0.00873034440613374,29.9873054
1.56635188643261,30.0316053
-0.367237509040905,30.0752807
0.243118407985576,30.110296
-0.0156662999879429,30.1541856
-0.0107791329614622,30.1892905
0.0136392840650186,30.2343467
-0.0303016739085007,30.2825174
0.01853080561798,30.3207849
0.0185351601444608,30.360987
-0.0205229853290581,30.40543
0.0136610566974227,30.4438209
0.0136654112239034,30.4849746
-0.00586148424961586,30.5302959
0.0429709952768649,30.5665294
0.00391284980334561,30.6077654
0.0136828293298263,30.653861
-0.0351409411436925,30.690008
0.0332227883827882,30.7343304
1.58107870540927,30.7726159
-1.15817475256425,30.8129149
0.33597022696223,30.858997
-0.0155879185112888,30.894157
-0.0107007514848081,30.938644
-0.000930771958326915,30.9850165
-0.0106920424318462,31.0221292
-0.0497501879053655,31.0647197
0.0332619791211153,31.1098521
-0.010678978852404,31.1458252
0.00885662567407675,31.1892123
0.0137437927005575,31.2253426
-0.0106659152729613,31.266709
0.00886968925351939,31.3158226
0.00399123128000012,31.351889
-0.0301841016935191,31.3949547
-0.0204141221670384,31.4321741
0.0333011698594423,31.4733557
-0.113178850614077,31.5105829
0.126083316412404,31.5528269
0.130970483438885,31.5969352
0.135857650465366,31.6353222
-0.0155051825081536,31.6755386
-0.000852390481672849,31.7128042
0.0430972765448079,31.7560393
-0.0789686814287114,31.7932954
-0.000839326902230209,31.8326379
0.0186962776242505,31.8817402
0.0138178196507313,31.927099
-0.00570907582278801,31.9657919
0.00894371620369272,32.0036227
-0.0203488042698265,32.0408556
-0.00569601224334582,32.0830211
-0.0203400952168646,32.1212069
-0.0252185531903839,32.1624166
-0.147284511163903,32.2006338
-1.55353015663742,32.2417591
0.326357010389058,32.2892191
0.023626989915539,32.3264471
-0.0349624055579802,32.3667511
0.00898726146850093,32.4049101
-0.000774009005018339,32.4440271
-0.132605591978538,32.4802831
0.0382972000479431,32.5232289
-0.000760945425576143,32.5680508
-0.0251706533990954,32.6051378
0.00413057612738532,32.6454018
-0.0105135068461335,32.6824978
-0.00074352731965277,32.7237001
-0.039801672793172,32.7610086
-0.0300316932666913,32.8014972
-0.108152338740211,32.8398325
0.60474264078627,32.8808934
0.0822860578127509,32.9191684
0.140884162339232,32.9585605
-0.0104786706342872,33.0060305
-0.00559150360780647,33.0520291
0.0139441009186743,33.090292
-0.093473419554845,33.1274128
0.0188356224716357,33.1745579
0.0383712269981165,33.2117011
0.0383755815245976,33.2558466
0.0188486860510784,33.301032
0.0090874155775591,33.3370766
0.0383886451040398,33.3808722
-0.0202007503694794,33.426079
-0.0201963958429987,33.4725939
-0.132496728816518,33.5107188
0.0481716882099632,33.5498038
0.228840105236444,33.5868708
-0.0152961652370753,33.6280407
0.0091222517894054,33.6753441
0.0286578563158861,33.721859
-0.0982909141576331,33.7611895
0.0530806278688476,33.7983265
0.0286709198953288,33.8354904
-0.0152700380781905,33.8766118
-0.0152656835517098,33.9256705
-0.000612891525229031,33.9639582
0.0482195880012517,34.0041256
-0.0347838699722676,34.0522706
-0.0103654529457868,34.0893819
1.02967796408069,34.1324208
-0.767192681392825,34.1707636
0.277733548133656,34.2109675
0.0335972776601365,34.2480706
0.0189531946866173,34.2912069
0.023840361713098,34.3283565
0.00431346623957873,34.3709745
-0.0445103042339405,34.4091964
-0.000560637207459358,34.4483627
0.0189749673190214,34.486533
-0.00543474065449789,34.5288689
0.0141008638719828,34.5750232
-0.00542603160153643,34.6141374
0.0141095729249443,34.6533739
-0.000534510048574965,34.699938
-0.000530155522093789,34.7391184
-0.122596113495613,34.7782604
-0.571810508969132,34.817459
0.180146970557348,34.8584525
0.175268512583829,34.8955909
0.00437442961030987,34.9387316
-0.0102696533632094,34.9770063
0.0141487636632718,35.0192795
-0.0688546943102475,35.0659499
0.0239230977162332,35.1051659
-0.000486610257286024,35.1443972
0.0239318067691947,35.1907411
-0.00047790120432456,35.2290379
-0.0151219841778438,35.2676135
-0.000469192151362652,35.3049052
-0.0199960876248819,35.3482101
0.0141879544015988,35.3843808
-0.0151045660719205,35.4255901
-0.00533458654543972,35.4719192
0.746622892981041,35.5103224
-0.0883336899924783,35.549485
0.219287852034003,35.5957747
0.00933126906048365,35.633279
-0.0199612514130356,35.673381
0.00445716561344511,35.7224582
-0.0443666048600742,35.7615766
-0.000416937833593423,35.7996647
0.0191186666928873,35.8389451
-0.0150566662806315,35.8791553
-0.0101694992541508,35.9245506
-0.00528233222767005,35.9637705
-0.000395165201189318,36.003349
-0.0199220606747086,36.0501948
-0.0199177061482279,36.0883568
-0.0150305391217471,36.1306662
-0.181041809595266,36.1770406
-1.50916245506879,36.2222647
0.258420024457696,36.2625335
0.0435806289841763,36.3017785
-0.029657203989343,36.3471304
0.0338237130371377,36.3872344
-0.0247656824363816,36.427477
-0.0735894529099004,36.4737824
0.0191883391165804,36.5129997
-0.000338556356938913,36.5541711
-0.0247482643304582,36.6016143
-0.0198610973039774,36.6497266
0.00944013222250328,36.6890285
-0.014969575751016,36.7302723
0.0192144662754652,36.7754017
-0.0979686791980541,36.815678
0.0680513003284267,36.8547861
0.0485244048549074,36.9009218
0.0924740718813881,36.9390255
-0.00517782359213115,36.9791992
0.0387718434343496,37.0185085
0.00947932296083076,37.0586363
-0.0539928850126885,37.1052458
0.0339020945137922,37.1451507
0.00460957404027296,37.1853194
0.0143795535667537,37.2244009
0.0143839080932344,37.2646247
0.0290367001197152,37.3117321
-0.00513863285380367,37.3508324
-0.0148999033273229,37.3922194
-0.00512992380084221,37.4372452
-0.229734944274361,37.4836029
-1.40160558974788,37.5308762
0.2585550147786,37.5713426
0.0193015568050807,37.6092903
-0.0246394011684381,37.6474229
0.00954464085804263,37.6887404
-0.0148650671154766,37.7360316
-0.0539232125889959,37.7772527
0.0144405169374848,37.8175089
-0.00508637853603444,37.8608477
-0.00508202400955371,37.9080053
-0.00507766948307253,37.9470622
-0.0050733149565918,37.9862569
-0.0246002104301111,38.0264947
-0.0197130434036303,38.0666656
-0.0050602513771496,38.1058413
1.02521754064933,38.1461061
-0.127121854824188,38.1924256
0.117023124702293,38.2327374
0.00472279172877377,38.2740218
0.0193755837552545,38.3154177
0.0242627507817352,38.3634697
-0.068506332191784,38.4045188
0.0193886473346967,38.4437456
-0.0147866856388226,38.4890774
-0.000133893612341396,38.528154
-0.0196607890858607,38.5673044
-0.0147736220593799,38.608598
0.0047619824671008,38.6497386
0.0145319619935815,38.6948413
-0.0147605584799377,38.7339526
-0.083115578953457,38.7761541
-1.45518153692698,38.8174104
0.258690005099505,38.8565855
0.0389677971259856,38.9711904
0.0145580891524664,39.01135
-0.102625056321053,39.049566
0.00968398570542783,39.0898473
0.00968834023190857,39.1363996
-0.00983855524161026,39.1835967
-6.85757151295263e-05,39.2237615
-0.00494703368864879,39.2639189
0.0145885708378319,39.3071274
-0.0244695746356873,39.3462435
0.0048316548907934,39.3863949
-0.102585865582726,39.4265711
-0.180706511056245,39.4656976
0.214805655970236,39.5057803
0.141567822996717,39.5447912
-0.0244434474768025,39.5903151
-0.00490784295032176,39.6362271
-0.024434738423841,39.6765436
-0.0976725713973603,39.7166168
0.0195192831291209,39.7548973
0.00975801265560161,39.7973169
0.00487955468208234,39.8424858
-0.0195301532914369,39.8886128
-0.0146429862649562,39.9277417
-0.0244042567384755,39.9689976
-0.0195170897119947,40.0081263
-0.0243955476855136,40.0491585
2.28693409671799e-05,40.0954507
-0.454074338632552,40.1416518
0.288117515893929,40.1820061
0.117223432920409,40.2221899
-0.00484252505310989,40.264281
0.0195758919733708,40.311669
0.024463058999852,40.3579341
-0.0536575864736673,40.3992405
0.0488858305528135,40.4404842
-0.00482075242070579,40.4837243
0.0537773521057749,40.5228324
7.07691322556769e-05,40.5630249
0.00984074865873641,40.6072243
0.00496229068521759,40.6535885
-0.00968179228830168,40.6927656
0.00497099973817905,40.7341308
-0.20986839573534,40.7791862
-1.64052810370886,40.8183234
0.302835625817621,40.8604296
0.048933730344102,40.8994972
0.0245240223705832,40.9406999
0.00987993939706389,40.9789134
0.00500148142354462,41.0211907
-0.0633535390499746,41.0603394
0.0147758154765061,41.1026643
0.00989735750298681,41.1489496
0.0147845245294675,41.1969795
0.00502325405594872,41.2350774
0.00502760858242945,41.276303
0.0245632131089102,41.3224793
-0.0144949323646091,41.3626957
0.00992348466187165,41.4029259
1.29410752668835,41.4481775
-0.141434993785167,41.4894864
0.180834985741314,41.5306353
0.024589340267795,41.5707054
-0.0193516177057242,41.6189432
0.000183986820756488,41.6590582
-0.0339913461527628,41.6993449
0.019723945873718,41.7445838
0.000197050400198684,41.7909523
0.00996702992667986,41.8384511
0.000205759453160592,41.881503
0.0392726139796413,41.9226779
-0.0290824064938779,41.9688756
0.00510163553260279,42.0142334
0.107645052559084,42.0563943
-1.55738965541444,42.0987305
0.327380324112045,42.1420132
0.0392987411385262,42.1864635
-0.0192906543349931,42.2276872
0.00512776269148763,42.2687853
0.0100149297179684,42.3098604
-0.0485744657555509,42.3521927
-0.0143904237290702,42.3952564
-0.004620444202589,42.4415571
-0.00949890217610827,42.4826322
0.00515388985037246,42.5236573
-0.0143730056231468,42.5689152
-0.0290170885966661,42.6101246
-0.0924892965701853,42.6511529
0.259077557956295,42.6983934
0.259081912482777,42.7406398
0.0735393920092573,42.7817045
0.010067184035738,42.8233512
0.0149543510622188,42.8644632
0.0100758930886995,42.9047172
-0.10710725238482,42.9499422
0.049147102141661,42.9912133
0.000323331668142135,43.0334299
0.00521049869462287,43.0746335
0.000332040721103599,43.118998
-0.0631401672524157,43.1667846
0.00522356227406506,43.209126
0.635110729300546,43.2513864
-0.976213041172973,43.2916717
0.273791313353508,43.3328031
0.0101237928799884,43.3749826
-0.0142859150935308,43.4192358
-0.0191643730670501,43.4666311
-0.0631053310405694,43.5079758
-0.00939003901408864,43.5471125
0.0199111905123921,43.5922177
-0.00938132996112673,43.6334685
0.010154274565354,43.6738028
0.0394555040918347,43.718075
0.000397358618315469,43.7583265
0.000401713144796201,43.7985415
1.49942950517128,43.8438461
0.0541213596977577,43.8839919
0.176196026724239,43.9231969
0.000419131250719573,43.9634231
0.00530629827720031,44.0042968
0.000427840303681037,44.0505632
-0.0483959301698382,44.0961219
0.0590302993566425,44.1444769
0.000440903883123234,44.1866478
0.00044525840960441,44.2300641
0.0248636754360851,44.2712961
-0.0190772825374341,44.3176039
0.0151067594890466,44.3586772
-0.0923107609844727,44.3989181
-0.805197031457992,44.4431566
0.327619823068489,44.4853551
0.09324917759497,44.5265249
-0.0141683428785493,44.5689004
0.00536726164793144,44.6100992
-0.00927682132558783,44.6503725
-0.0727490292991071,44.6970437
0.0249115752273736,44.7433796
-0.0141465702461456,44.7855064
0.0151546592803355,44.8256603
-0.00925504869318372,44.8695049
-0.028781944166703,44.9144991
0.0200505353597777,44.9567767
-0.165491985113742,44.9990475
-1.73287044308726,45.0402997
0.35697766143922,45.0805197
0.0835445159657011,45.1216806
-0.0336386295078182,45.1639536
0.0347251000186626,45.206078
0.00543257954514331,45.2462509
-0.053156815928376,45.286401
0.0249725385981048,45.32666
-0.0189684193754145,45.3668605
0.0200984351510667,45.408036
0.000571539677547417,45.4520599
0.0249899567040281,45.4942259
-0.0384822512694911,45.5365117
0.0103502282569896,45.5791693
1.33359677028347,45.6227263
-0.424211375190049,45.6648829
0.254503916836432,45.706996
0.00548483386291299,45.7542449
0.00548918838939372,45.7953449
0.0103763554158744,45.8374607
-0.0823927275576448,45.8826439
0.0494475644688359,45.923822
0.0152722314953166,45.9651204
0.00551096102179782,46.0093405
-0.00425030945172145,46.0556134
0.0494649825747593,46.1003115
-0.02865566289876,46.1432871
-0.0140028708722792,46.1845697
1.4410796086542,46.2269104
-0.272783224319318,46.2720749
0.166674255207163,46.3133824
0.0153114222336441,46.3564895
0.0201985892601249,46.3999022
0.0153201312866056,46.445217
-0.111628639186914,46.493526
0.0202116528395671,46.5345475
0.00556756986604778,46.575805
-0.00907651310747104,46.6200488
-0.0334862210809903,46.6681738
-0.0432474915545096,46.7145702
0.0299990504719712,46.7597579
0.244847154998452,46.8071472
-0.839132865475067,46.8486098
0.298566801551413,46.8887698
0.0104852185778945,46.9335398
-0.00415886439562474,46.9809136
0.025142365130856,47.0235318
-0.121337655342663,47.0658954
0.0300338866838175,47.1071652
0.0202726162102982,47.1522963
0.00562853323677892,47.1997249
-0.0090155497367399,47.2460423
-0.0138940077102592,47.2924423
-0.00412402818377844,47.3336476
-0.160369673657298,47.3759101
-1.57149813163082,47.4202834
0.391396847895664,47.465475
0.0496043274221445,47.512634
0.0251946194486257,47.5538798
0.0300817864751064,47.5950607
-0.0480388589984129,47.6373831
0.000793620528067862,47.6817686
0.0642745375545486,47.7239581
0.0252163920810293,47.768169
0.0105723091075101,47.8103828
0.0203422886339912,47.8536599
-0.023598669339528,47.8958837
0.0252338101869527,47.9418175
1.42660535221343,47.9893431
-0.277491855760086,48.0364925
0.171731248766395,48.0786165
0.00571997829287563,48.1207345
0.0203727703193568,48.1620727
0.0399083748458375,48.20629
-0.101688833127682,48.2495469
0.025268646398799,48.2938568
-0.00890668657472027,48.3350546
-0.0137851445482395,48.3802207
-0.0137807900217588,48.4234702
0.0594657520047224,48.4657407
-0.0137720809687969,48.5067882
0.0252947735576838,48.5501314
1.58779912808416,48.5935575
-0.248134017389355,48.637757
0.254800024637126,48.6821015
-0.0186331208363932,48.7278164
0.0546134211900879,48.7760613
0.0643834007165687,48.8202854
-0.150455994756951,48.8643262
0.0106811722695301,48.9076036
0.0692792767960109,48.9507617
-0.0283726186775084,48.9982588
0.0546395483489723,49.0444249
-0.00394984712454649,49.0866108
-0.160195492598066,49.1287293
0.123011986928415,49.1708722
1.6659850914549,49.2196744
0.0888410084813764,49.2649269
0.215798488007857,49.3080088
-0.106462782465662,49.3511755
-0.116224052939181,49.3939464
0.1865146765873,49.4423143
-0.0673872188862195,49.485271
-0.0234375518597387,49.5283674
0.010746490166742,49.5716306
0.113289907193223,49.61438
0.0498176992197035,49.6564839
-0.121076383753815,49.6976928
-0.194314216727335,49.7410217
0.176783887799146,49.7874709
1.41213980482563,49.8326323
-0.374965215647892,49.8806234
0.210976638878588,49.9276472
0.010785680905069,49.9740449
0.0449697229315502,50.0212178
-0.0868618600419691,50.0706816
-0.0526778180154883,50.119096
0.0889280990109924,50.1675471
-0.0380206714625269,50.2135758
0.0254602455639539,50.2617287
0.0449958500904346,50.3097695
-0.00871073288308422,50.3560976
-0.101479815856603,50.4002933
-1.17081139883012,50.4445074
0.362396080696358,50.4906759
0.0108379352228387,50.5369524
0.0303735397493194,50.5822505
-0.0477471057241998,50.6265961
-0.0526255636977186,50.6698419
-0.0233243341712379,50.7130761
0.0450393953552428,50.7563431
0.0255124998817235,50.8024818
-0.0330768955917957,50.8456395
0.00110714643468501,50.889902
-0.0330681865388343,50.9340779
-0.0232982070123531,50.9794162
-0.208840727485872,51.0246569
-1.87875824795939,51.0698704
0.347808606567089,51.1141883
0.0304301485935699,51.1613639
0.0157860656200506,51.2055833
0.0255560451465313,51.2506385
-0.0672130378269875,51.2959524
0.0548616291994932,51.3391779
0.030451921225974,51.3823942
0.0206906507524547,51.4446304
0.00116375527893542,51.4915982
0.0206993598054162,51.5387173
0.00117246433189688,51.5830991
0.0304736938583781,51.62761
0.904501485884859,51.6718216
0.25997459041134,51.7162702
0.11349456993782,51.7615272
-0.00368857553569901,51.8055838
0.0207298414907817,51.8541989
0.0256170085172625,51.8998314
-0.0280895744562564,51.9460735
0.0353913425702244,51.9903918
0.00121600959670509,52.0347698
-0.00366244837681418,52.0799614
0.0207559686496666,52.1235242
0.00611188567614729,52.1697335
-0.032946259797372,52.2148795
0.0012377822291092,52.2620054
1.54909369925559,52.32581
0.328394928782071,52.3889736
0.0354305333085514,52.4332341
-0.0182760496649679,52.4775259
0.00125955486151286,52.5218575
-0.0280329656120064,52.5661308
0.00615107641447477,52.6114481
0.0159210559409555,52.6557254
0.0256910354674362,52.7000146
-0.00360148500608304,52.7448202
-0.00847994297960231,52.7881372
0.0110556615468784,52.8324953
0.00129439107335916,52.8767592
0.0110643705998399,52.9220305
1.33431091262632,52.965254
0.0550183921528018,53.0083682
0.162444621679283,53.0524995
-0.00844946129423674,53.0968228
0.00132051823224399,53.1410775
-0.00844075224127527,53.1854136
-0.0670301477147945,53.2329331
0.00133358181168663,53.2760918
-0.0181933136618326,53.3204903
0.0013422908646481,53.3634087
0.00622945789112883,53.4080486
-0.0474771250823904,53.4521769
-0.0132930830559097,53.5141908
0.016008146470571,53.5584534
1.49062187599705,53.6027053
-0.438084706976467,53.6486456
0.211333710050014,53.6929396
-0.0035056854235056,53.7357024
-0.0327982058970249,53.7789507
0.0111514611294559,53.8230706
-0.0132582468440634,53.8724577
0.00627735768241777,53.9187124
-0.0034839127911015,53.9639261
-0.00836237076462076,54.0267944
-0.01324082873814,54.0898841
-0.0181192867116593,54.1522047
0.00629913031482143,54.215361
-1.4097121401587,54.2629348
0.338339089367783,54.3113269
0.0356090688942641,54.3585941
-0.0229803265792552,54.4049778
0.0112037154472255,54.4683696
-0.0766825550262937,54.5167982
-0.003436012999813,54.5782193
0.0160995915266677,54.6406433
-0.00831011644685109,54.7030631
-0.0327198244203704,54.7471592
0.0209954676061104,54.7912818
0.768070134632591,54.8366601
-0.696769260840928,54.8818787
0.235852281185553,54.9256268
0.0210128857120333,54.9873639
0.0112516152385145,55.0326474
-0.0131580927350048,55.0778228
-0.0278021757085241,55.1230637
0.0356787413179567,55.1671859
-0.00337940415556259,55.2114652
0.00639057537091814,55.2727347
0.0503402423973989,55.3180112
-0.02778040307612,55.362197
-0.0424244860496392,55.4075397
-0.818787319023158,55.4528451
0.328677973003322,55.4981229
0.065010452529803,55.5428209
0.00153824455628371,55.5880757
0.0113082240827644,55.6342353
-0.00821867139075438,55.6946023
0.0308481831357263,55.7569476
-0.0179755873377929,55.8026341
0.00644282968868781,55.8475209
0.0113299967151685,55.8927151
0.0406312262416493,55.9358618
-0.02284098173187,55.9822673
-0.100961627205389,56.0274178
-1.21912133517891,56.0747699
0.353148644347573,56.1189069
0.0650670613740534,56.182085
-0.0130535840994659,56.2448014
0.0504273329270148,56.3070977
-0.0130448750465044,56.3560049
-0.00327489552002325,56.4011602
0.0113778965064575,56.4470648
0.0113822510329382,56.4924576
-0.00326183194058105,56.5375333
0.00650814758589968,56.5847976
0.00162968961238041,56.6312645
-0.183912830861139,56.6774112
-1.70734597633466,56.7227289
0.304377128191823,56.7690766
0.0211783577183038,56.8142271
-0.0129969752552155,56.8614556
0.0114214417712653,56.9218944
-0.056933578702254,56.9844165
-0.00810109917577329,57.0485702
-0.00809674464929211,57.1096931
0.00655604737718862,57.1742065
-0.0227364730963306,57.2375451
-0.00808368106984991,57.2996501
1.32981129845663,57.3459121
-0.369403097016888,57.4080838
0.0602887575095923,57.4521652
-0.0275975129639265,57.4979945
0.00658652906255419,57.5420941
-0.0178231789109651,57.5862769
-0.0373500743844843,57.6335559
0.00659959264199639,57.6797579
0.0114867596684771,57.7418563
-0.00315732330504215,57.8029565
0.040792343721439,57.8470924
-0.0177970517520802,57.8932431
-0.00802707222559951,57.9384355
0.216586657300881,57.9847603
0.280067574327362,58.031108
0.0456969288538427,58.0763659
-0.0177752791196766,58.1225517
0.0115259504068046,58.1698177
-0.0324150075667147,58.2149406
-0.0177622155402339,58.2612297
0.0554843264862468,58.3057183
-0.00310506898727247,58.3519531
0.00666491053920826,58.3994098
-0.012861984934311,58.4478854
-0.0177404429078298,58.4950282
0.0262092241186509,58.5423817
-0.0567942338548684,58.5895818
-1.29702425432839,58.6389071
0.270362912698093,58.6860886
0.0164610172245738,58.733614
0.00181693425105456,58.7797084
0.0213525387775357,58.8261418
-0.0616509191959835,58.8722097
0.0213612478304972,58.9204958
0.00183435235697793,58.9687488
0.0116043318834587,59.0180973
0.00672587390993939,59.0654068
-0.0128010215635799,59.1116159
0.0116173954629013,59.1579848
0.011621749989382,59.2053359
0.392485479515863,59.2527536
-0.779385165957657,59.3000611
0.250892626068824,59.3462451
0.031170418095305,59.3935777
0.0165263351217857,59.4398444
0.0116478771482669,59.4881528
-0.0567071433252524,59.5353628
0.0263050237012283,59.5818634
-0.00787030927229093,59.6281775
0.0263137327541898,59.6754597
0.0214352747806705,59.723668
-0.00297443319284874,59.7723276
0.0116783588336324,59.8184028
-0.00784853663988683,59.8674482
-0.0908519946134061,59.9156497
-1.49709764008693,59.9618094
0.358375464439555,60.0109261
0.0409970064660361,60.0590832
-0.00294395150748317,60.1074875
0.00682602801899801,60.1547108
-0.0419977424545213,60.2040008
0.0263659870719595,60.2734157
0.0166047165984402,60.3367585
-0.0224534288750791,60.386032
-0.00291782434859833,60.433127
-0.0126790948221176,60.4804907
0.00197369720436358,60.52561
0.00197805173084431,60.5898472
1.47659178125733,60.6531761
0.329135198283806,60.7159864
0.00199111531028651,60.7774068
0.0166439073367672,60.8405287
0.00688263686324797,60.9018328
0.0117698038897291,60.9640031
-0.00287427908379012,61.0122067
-0.00286992455730939,61.0598897
0.0117828674691713,61.1092714
0.0166700344956521,61.1555216
-0.0468021734778672,61.2028188
0.0117959310486135,61.2499901
1.54012059807509,61.2972217
0.128992140101575,61.3445928
0.0752855571280562,61.392772
0.0215789741545369,61.4419982
0.0411145786810176,61.508405
-0.0858341917925016,61.5718277
0.0215920377339791,61.620129
-0.0174661077395397,61.6688403
-0.00281331571305898,61.7160344
-0.0125745861865783,61.7632752
-0.0516327316600975,61.8115066
0.0118481853663832,61.8596189
0.739391602392864,61.9068831
-0.784041543080655,61.9542603
0.236470623945826,62.0003657
-0.00278283402769341,62.0485885
0.0216355829987873,62.0967768
-0.00765693747473195,62.1440499
-0.0369494579482512,62.1933763
0.0558283340782295,62.2615747
0.00212175110471025,62.3250036
0.0167745431311914,62.3890981
0.00213046015767215,62.4506514
0.0119004396841529,62.5148298
-0.163876455789366,62.5774545
0.339057586237114,62.6397387
0.00214787826359508,62.6879597
-0.00273057970992419,62.7499707
-0.00272622518344301,62.8133666
0.0119265668430377,62.8770158
0.0216965463695185,62.9250939
0.00705246339599919,62.9862513
0.0217052554224799,63.0497102
-0.0320013275510393,63.1141756
-0.202895410524559,63.1766431
-0.285898868498077,63.2398681
0.104730486028403,63.3011867
0.00219577805488402,63.3632728
0.0119657575813648,63.4115054
-0.00267832539215451,63.459831
0.0217400916343262,63.5090439
0.021744446160807,63.5571329
0.0168659881872881,63.6062856
0.00222190521376886,63.6546382
0.0119918847402496,63.7008487
-0.0124178232332697,63.7470333
-0.193077531206789,63.7962784
-1.98506536418031,63.8455378
0.329392115346173,63.8937082
0.0315449073726537,63.9418414
0.00713519939913443,63.9899317
0.0169051789256152,64.0413559
-0.0416842165479041,64.0895009
0.0217967004785766,64.1369268
-0.00261300749494264,64.183713
0.00715697203153809,64.2320793
-0.0123699234419807,64.2802049
-0.0172483814155,64.3285054
-0.0270096518890193,64.3768067
0.00229157763746146,64.4262177
1.49643655716394,64.4764532
0.0120659116904229,64.5266858
0.134140578716904,64.5757611
0.00230899574338483,64.625001
0.0218446002698656,64.6891868
-0.0220963577036537,64.752254
-0.00256075317717297,64.8156276
0.0218576638493078,64.8641036
-0.0123176691242115,64.9135956
-0.0220789395977308,64.9621318
-0.0025433350712496,65.0112876
-0.0220702305447689,65.0607576
-0.144136188518288,65.1098786
-1.75057714649181,65.1630971
0.246497520534673,65.2102275
0.0218925000611541,65.2746645
0.0170140420876348,65.3370334
-0.026926915885884,65.4032898
-0.0073913113594033,65.4654437
0.00726148066707744,65.5286263
-0.00738260230644183,65.5920995
-0.0122610602799611,65.6542641
-0.00249108075348037,65.7174255
-1.784713288727,65.7646339
0.329548878299482,65.8139805
0.0219360453259623,65.86315
-0.012239287647557,65.9123216
0.00729631687892374,65.9627208
-0.0512930785945955,66.0120182
0.0121878384318852,66.061273
0.0268406304583659,66.1245438
0.0121965474848471,66.1899736
0.00731808951132784,66.252131
-0.0122088059621914,66.3156391
0.373537736064289,66.3792337
0.09033896559077,66.4402848
0.0610464451172508,66.5047953
-0.0024257628562685,66.5651137
0.0317582791702127,66.6285176
-0.00241705380330659,66.6787913
-0.00241269927682586,66.7278283
-0.00729115725034513,66.7772365
-0.00240399022386439,66.826418
0.0220144268026163,66.8755555
0.0171359688290971,66.9278352
-0.0561018641444218,66.9892166
-1.35980844711794,67.0515834
0.16363340740854,67.1157745
0.00250494943502044,67.1660602
0.0366889914615012,67.2164492
-0.0219004040120181,67.2663927
0.0269320755144626,67.3145903
0.00252236754094382,67.3638955
0.00740953456742455,67.4233124
0.00253107659390528,67.4736258
-0.016995818879614,67.5228644
0.0220710356468667,67.5720025
1.46250507767335,67.6213995
-0.0218655678001718,67.6705334
0.109974724226309,67.7198116
-0.00720842124720988,67.769047
0.00744437077927085,67.8191964
-0.0267309621942484,67.868597
0.00257026733223231,67.9326387
0.012340246858713,67.995067
-0.0316007111148062,68.0564115
0.051411455911675,68.1174878
0.00258768543815568,68.1817079
1.61392016496464,68.2427288
0.378572956991117,68.3069144
0.00260074901759788,68.3722793
0.0221363535440786,68.4368168
-0.0803983544294407,68.4982666
0.0270278750970405,68.5626934
0.0123837921235213,68.6128891
0.00750533415000199,68.6631298
-0.0217871863235173,68.7144734
-0.0217828317970366,68.7819407
-0.0168956647705558,68.8321291
-1.02763349774408,68.8935479
0.285847419282406,68.9565405
0.0172970863088868,69.0192751
-0.00711262166463245,69.0697203
-0.0705848296381517,69.1199749
0.027075774888329,69.168226
-0.00221674558519025,69.2185303
0.0124360464412905,69.2829475
0.00755758846777166,69.347134
0.00756194299425239,69.4082531
0.0124491100207331,69.4727309
1.17944565204721,69.5229165
-0.251214055926305,69.5741759
0.158946548600175,69.6437011
-0.00706472187334395,69.7049989
0.0320021326531372,69.7662617
-0.016821637820382,69.8288329
0.0222452167060987,69.8932877
0.0173667587325794,69.9434368
0.00760548825906016,69.994294
-0.00703859471445911,70.0435408
0.0271454473120216,70.0938052
-0.0070298856614972,70.1600675
1.60430259386498,70.2244528
0.373838198391464,70.2867631
0.017397240417945,70.3380257
-0.00701246755557428,70.3873082
0.0174059494709065,70.4563978
0.00276186649738719,70.5076988
0.0271802835238684,70.5575363
0.0223018255503491,70.608677
-0.0118735074231702,70.6589844
-0.00698634039668944,70.7230388
0.0174320766297913,70.7843916
-0.016743256343728,70.8449915
0.193222035682753,70.8959886
-0.788218922290766,70.9472807
0.198113557235715,71.0157645
-0.0069602132378046,71.0791616
0.0174582037886761,71.1423518
-0.0167171291848431,71.2076847
0.0174669128416376,71.2573049
0.0223540798681183,71.3076718
0.0028271843945995,71.3580338
0.0125971639210802,71.4254763
-0.011812544052439,71.4870545
-0.0069253770259583,71.5505755
-0.270592897499478,71.6139726
-0.143635417972997,71.6761375
0.0467986240534839,71.7405006
-0.0264392089200349,71.8046113
0.0272760831064458,71.8656954
-0.0166648748670735,71.9158119
-0.0117777078405927,71.965121
0.012640709185888,72.0164947
-0.0215346237876313,72.0859723
-0.0117646442611505,72.1484817
-0.0215259147346694,72.2119162
-0.00687312270818863,72.2621461
-0.338900018181708,72.3143213
0.330049648844773,72.3653325
0.0370852533712536,72.4155725
-0.0117385171022657,72.4788024
0.00779708742421503,72.5411913
-0.00684699554930379,72.6055537
0.00780579647717694,72.6587787
-0.0166039114963423,72.7110719
-0.0019511194698616,72.7766257
-0.00194676494338086,72.8381964
0.0175888395830999,72.9006585
-0.114242743390419,72.9651539
-0.807597763863938,73.0175372
0.203148778162543,73.067759
0.00784063268902324,73.1340727
0.00296217471550397,73.197621
-0.0165647207580153,73.2590578
-0.00679474123153456,73.3220788
0.00785805079494617,73.3723396
0.00786240532142735,73.424502
0.00298394734790808,73.4766505
-0.0116601356256112,73.5450101
0.0176410939008695,73.6064945
-1.71575298907265,73.6671388
0.222727927953831,73.7303326
-0.00187709251968826,73.7925276
0.0127756995067929,73.8539459
-0.0409308834667264,73.9171398
0.00301878355975438,73.9792558
0.0225543880862351,74.0416245
-0.00673813238728416,74.105616
-0.0164994028608034,74.1698171
-0.0457919233343227,74.2342358
-1.06629538130784,74.2947957
0.139763660718639,74.3582421
-0.0115991722548801,74.4203489
0.00793643227160068,74.4857175
-0.0164732757019186,74.549156
0.00306232882456214,74.6113625
0.0128323083510429,74.6752113
0.00307103787752405,74.7263301
-0.0311042950959952,74.7766369
-0.00180306556951448,74.8278775
0.300935663956966,74.8970347
0.296057205983447,74.9612393
-0.00179000199007229,75.0126464
0.0128627900364084,75.0628247
-0.0213125429371104,75.1141428
0.0226371240893704,75.1833609
-0.0164210213841489,75.2346784
0.00799739564233182,75.2850817
-0.00176387483118745,75.3378329
-0.00664233280470672,75.3889069
0.022658896721774,75.4511638
0.193561688748255,75.512801
0.344933230774736,75.5748384
-0.00174210219878335,75.6370137
0.0129106898276974,75.7007024
-0.0603271431458219,75.7621883
0.0129193988806589,75.8132675
-0.00172468409286042,75.8647058
-0.00660314206637969,75.9343679
-0.0163644125398985,75.9967531
0.0178196294865822,76.0582762
-0.016355703486937,76.1228191
0.266851776039544,76.1850397
0.344981130566024,76.2473568
0.00318861009250515,76.3106925
0.00807577711898588,76.3733757
-0.0553964308545329,76.4245148
0.00320167367194779,76.4770658
-0.0114424093015715,76.54605
0.0325072577249093,76.6095091
0.00321473725138999,76.6708784
0.0227503417778707,76.7323889
-0.0114249911956485,76.7867403
0.0276418633308326,76.8578204
-1.91571315714269,76.9211555
0.232728697383794,76.9743065
-0.00652476058972518,77.0467491
0.0227764689367556,77.1079433
-0.0260473015367637,77.1729758
0.00813674048971702,77.2363394
0.0227895325161982,77.2964873
0.00814544954267893,77.3587812
0.00814980406915966,77.4151647
0.0179197835956404,77.4836739
0.0130413256221211,77.5463762
0.271834742648602,77.6128209
0.203479722175083,77.6668062
0.0862965767015638,77.736658
0.0130587437280445,77.7918534
0.0325943482545252,77.864476
0.017950265281006,77.9171827
0.0228374323074867,77.9883603
-0.00645508816603257,78.0416961
0.00331489136044816,78.1141869
0.0423817458869293,78.1657776
-0.0210904620865899,78.2180882
0.0033279549398908,78.2893159
0.237707309466372,78.3507156
0.0375163514928523,78.4131089
0.00334101851933299,78.4747529
-0.0210686894541863,78.5360742
0.0375294150722949,78.5999904
0.0131197070987756,78.6624336
0.00824124912525637,78.727666
0.0033627911517371,78.7920316
-0.0161641043217822,78.8533959
-0.00639412479530144,78.9147133
-1.73002258276882,78.9771008
0.18404427175766,79.0392465
-0.0161466862158588,79.0934925
0.00827173081062194,79.1635626
-0.0405520396628973,79.2257439
-0.0014851851364166,79.2872257
0.00340198189006413,79.3502417
-0.0161249135834551,79.4127069
0.00341069094302604,79.4750701
-0.0112333920304932,79.528093
0.0913100249959875,79.5984095
0.267095629522468,79.6616459
0.018076546548949,79.7154523
-0.0209815989245703,79.7861536
0.00343681810191043,79.8485946
0.0132067976283916,79.9009629
0.00832833965487234,79.9521137
0.0327467566813531,80.0043146
0.00833704870783381,80.0684407
0.0278726532343145,80.1216943
-0.0160683047392047,80.1913564
-0.167431137712724,80.2529208
-0.518989283186243,80.3171045
0.0913666338402379,80.378257
0.0181288008667186,80.4419533
0.0278987803931994,80.5033922
0.0230203224196801,80.5576194
0.00837623944616084,80.6120925
0.0230290314726416,80.6661063
-0.00626348900087725,80.7202137
0.0523346155256035,80.789297
0.0181592825520842,80.8516652
1.68320269957856,80.9059419
0.286722679105046,80.9772453
0.00352390863152641,81.038121
0.0132938881580071,81.1025112
-0.0501783198155117,81.1657192
0.047482284710969,81.2302585
-0.00622429826255022,81.2927087
0.00354568126393051,81.3552811
-0.0110984017095888,81.4176604
0.032851265316892,81.4800011
0.00355874484337271,81.5420104
1.72231309936985,81.6053165
0.369778391396335,81.6669292
0.0182202459228153,81.7312859
0.0133417879492961,81.7936849
-0.0452476075242232,81.8561304
0.0133504970022575,81.9176111
-0.00129358597126172,81.979635
0.0133592060552195,82.0328715
0.00848074808170018,82.1061203
0.0133679151081809,82.1684839
0.0182550821346616,82.2218422
1.54657974916114,82.2946606
0.369826291187623,82.3568052
-0.0159115417858962,82.4186734
0.028038125240585,82.4818997
-0.0647309577329342,82.5450973
0.00851558429354649,82.6092666
0.00363712632002722,82.6730145
-0.00612414415349205,82.7364889
-0.00123697712701132,82.8001445
0.00853300239946941,82.8620399
-0.0402907680740494,82.9263704
-0.00610672604756868,82.9817858
0.0720226284789121,83.0493105
0.316167608005393,83.11198
-0.0207420999681265,83.1736172
0.0427388170583543,83.2378248
-0.064678703415165,83.3010728
0.0280990886113162,83.3655172
0.0134550056377969,83.4288816
-0.0109547023357224,83.4829296
0.00369808969075835,83.5509729
0.00858525671723909,83.6156052
-0.0207072637562802,83.6777213
0.0330080282702006,83.7419834
-1.82245636720332,83.8058728
0.223446424823162,83.8675978
0.0281382793496432,83.930033
0.0134941963761239,83.9939879
-0.0499780115973953,84.057597
0.0183857179290854,84.1181474
0.0183900724555661,84.1827227
0.0135116144820473,84.244607
0.00863315650852803,84.3083316
0.00375469853500876,84.3708476
-0.0157721969385105,84.4334127
-0.21108034241203,84.496238
-0.298966612885549,84.5606367
0.0867799291409317,84.6148231
-0.0304032163325871,84.6863179
0.0379605131938936,84.7418186
-0.0255116947796257,84.8099487
0.0135551597468551,84.8744214
0.0135595142733358,84.9376498
-0.00596738120018347,85.0018882
0.0282166608262973,85.0585393
-0.0401383596472216,85.1285889
-0.0889621301207408,85.1910341
-1.11923121309426,85.2537798
0.150304391432221,85.3171976
0.00870718345870136,85.382398
0.0331256004851821,85.4445571
-0.0156981699883372,85.5087164
0.003837434538144,85.5737859
0.00872460156462473,85.637181
-0.0108022939088945,85.6992546
0.0233817481175862,85.7635192
-0.00102795985593307,85.8176151
0.540968582170548,85.8851594
0.243121374197028,85.9479352
0.0429304162235096,86.0046003
-0.0107761667500097,86.0741768
-0.044951499723529,86.1374892
-0.00588464519704823,86.1927897
-0.000997478170567501,86.2619234
-0.0205243736440868,86.3254067
-0.015637206617606,86.388678
-0.0742266020911249,86.4532435
-1.06055037256464,86.5164177
0.121094606961837,86.5798855
-0.0107369760116827,86.6434416
-0.00584980898520193,86.7060603
0.0136857955412788,86.7685363
-0.0107239124322405,86.826143
-0.0107195579057593,86.8954887
0.0625269841207214,86.9588885
-0.0155936613527978,87.0216153
1.53226225567368,87.0841692
0.379922860200164,87.1468763
0.0137162772266444,87.2120013
0.0137206317531251,87.2752256
-0.0790484512203937,87.3359005
0.067440278306087,87.3992214
0.0283821328325677,87.4631471
0.0186208623590485,87.5243424
-0.0253200956144708,87.5877438
0.0332780089120099,87.6502674
-1.99308482406151,87.7136
0.292075780464972,87.774814
0.0137598224914526,87.8385067
0.0235298020179333,87.9021131
-0.049708030955586,87.9655994
0.0381869485708948,88.027961
0.0137772405973755,88.0911972
-0.00574965487614376,88.1549504
0.00890313715033741,88.2173692
0.0137903041768181,88.2794041
0.463013408703299,88.3428588
0.35559588822978,88.4066729
0.00403774275626034,88.4688211
0.0382217847827411,88.5317894
-0.0740785481907782,88.5939968
0.023582056335703,88.6588317
0.0138207858621837,88.7151604
0.0187079528886644,88.7704294
0.0138294949151452,88.843701
0.0333650994416259,88.9068978
0.0236038289681066,88.9696761
1.70817849599459,89.0315089
0.394706288021069,89.095125
-0.00567998245245072,89.1575465
0.03338687207403,89.2163631
-0.0154368983994893,89.2733363
0.0285127686269915,89.3433899
-0.0154281893465278,89.4007319
0.0187558526799529,89.4580597
-0.0105366677935659,89.5285939
-0.00564950076708515,89.5920297
-0.0251763962406044,89.6502901
-0.0154064167141237,89.7066997
-0.093527062187643,89.7769703
-0.283952395161162,89.8391036
0.0627316468653185,89.9024675
-0.0153889986082003,89.9658849
0.0236778559182804,90.0211498
-0.0300287270552388,90.0904086
-0.00561031002875811,90.1539297
-0.000723143002277382,90.21732
-0.00071878847579665,90.2794257
-0.000714433949315918,90.3419774
0.00417273307716526,90.4062134
-0.00558853739635401,90.4684264
0.00418144213012672,90.531729
-1.27999389084339,90.5954346
0.267862026183088,90.6586844
-0.0251023692904311,90.7229162
0.0139644852360497,90.7791062
-0.0592733477374692,90.8513661
0.00420756928901156,90.9083755
-0.00555370118450771,90.9766966
0.00421627834197302,91.0392107
0.00910344536845376,91.1025929
-0.000657825105065513,91.1655761
0.0139949669214152,91.228064
-0.0348288035521036,91.2905827
-0.0885353865256229,91.3557014
-0.625640406999142,91.4181726
0.145848322527339,91.4806662
0.0188995520538193,91.5440278
0.0335523440803001,91.606474
-0.0103886138932192,91.6705643
0.00426417813326196,91.7348485
-0.0054970923402573,91.7985663
0.0189213246862234,91.8604709
-0.000605570787295839,91.9249334
0.00428159623918489,91.9866984
0.0238172007656656,92.0479691
-0.00547531970785364,92.1051769
1.43984153481863,92.1617165
0.136134951845108,92.2362747
0.004303368871589,92.2978527
0.0433702233980697,92.3605392
-0.0201019845754495,92.417951
0.00431643245103119,92.4861633
-0.0298589005224881,92.5613893
0.0043251415039931,92.6254443
-0.000553316469526166,92.6874934
-0.000548961943045434,92.7481934
0.0189866425834353,92.8048092
-0.00542306539008397,92.8756373
1.5375500391364,92.938669
0.321734081162877,93.0007328
0.0141212481893587,93.0652134
0.0238912277158394,93.1274267
0.0190127697423201,93.2042056
-0.0200453757311991,93.261349
0.0043730412952816,93.3325867
-0.000505416678237669,93.3942549
-0.0200323121517569,93.4530615
-0.0102623326252758,93.5112402
0.00439045940120497,93.582817
-0.200683311072314,93.6432528
-0.483882081545834,93.7066466
0.0629972729806472,93.7696183
-0.0297718099928721,93.8461324
0.0434747320336086,93.9104406
-0.0151146634399102,93.9738629
-0.00046187141342946,94.0382161
-0.00534032938694873,94.1023927
-0.005335974860468,94.1662826
-0.00533162033398726,94.2301977
0.00443835919249347,94.2929392
-0.850049473781026,94.3558258
0.282767380745455,94.4189179
-0.0199626397280639,94.4820048
0.0337526522984168,94.5606235
-0.0394851806751024,94.6368315
0.0142301113513783,94.6951711
0.033765715877859,94.7522492
0.00447319540433977,94.8269606
-0.0101708875691791,94.8885937
1.4107319044573,94.9502136
0.331634696483782,95.0138333
0.0289046760102631,95.0904148
0.0435574680367439,95.1540233
-0.107805364936775,95.2308933
0.0386833645897053,95.292316
-0.000374780883813486,95.3546762
0.0533405111426672,95.41844
-0.000366071830852022,95.4819225
1.44006797019563,95.5447107
0.356087949722109,95.6072827
0.0240610542485902,95.6717792
0.0240654087750709,95.7476251
-0.0735864866984479,95.8068447
0.0387225553280328,95.87217
0.0143128473545135,95.9501456
0.0240828268809943,96.013444
-0.000326881092524989,96.0921078
1.64518528593396,96.1534742
0.356127140460436,96.2168462
0.0241002449869177,96.2793475
0.0241045995133984,96.3376985
-0.0540160459601209,96.4064505
0.0289961210663598,96.4677702
-0.00029639940715942,96.5316624
0.0192392051193213,96.5949989
0.00947793464580204,96.655988
-0.0149317733277168,96.7186319
-0.014927418801236,96.7792795
-1.74832150177476,96.8441638
0.238987540251725,96.9066671
-0.0149143552217939,96.9834772
0.00462124930468688,97.048067
-0.000257208668832387,97.1104849
-0.0100184791423512,97.172276
-0.00513131211587048,97.2348804
-0.0197753950893897,97.2979874
0.019291459437091,97.3580836
0.00464737646357172,97.4231349
-0.000231081509947551,97.4843768
0.561296710516533,97.5463939
0.346457315043014,97.6115138
0.00466479456949509,97.6758734
0.00466914909597582,97.7367498
-0.0783343088775434,97.7997301
0.0193262956489373,97.8606401
0.00468221267541802,97.9238323
-0.00507905779810125,97.9867831
-0.00507470327162007,98.0489937
0.00469527625486066,98.1136582
-0.000183181718658609,98.1759407
-0.0685382021921779,98.2392847
-0.0831822851656971,98.3162282
0.00959550686078359,98.3774383
0.0388967363872643,98.4407767
-0.0587551590862545,98.5175878
0.0340226329402262,98.5803878
0.019378549966707,98.6577365
-0.000148345506812309,98.7221007
0.00962163401966842,98.7833315
-0.0196708864538508,98.8471261
0.0145131555726299,98.9086205
-1.88977936490089,98.9699041
0.200068739625592,99.0333987
-0.00500503084792747,99.0964053
0.0242961986785533,99.160644
-0.034293196794966,99.2217947
0.0145392827315147,99.3009946
0.0145436372579955,99.3654557
0.00478236678447663,99.4418774
-0.00497890368904264,99.5191046
-0.0049745491625619,99.5816283
-0.170985819636081,99.6590618
0.0975732223903996,99.7228831
0.0438666394168803,99.7864786
0.00969130644336103,99.8491058
-0.0098355890301578,99.9113578
0.0341140779963229,99.9744914
-6.12549771963344e-05,100.0382871
0.0097087245492844,100.1185674
-0.00981817092423487,100.1788632
0.0146002461022459,100.242596
0.00483897562872659,100.3057419
-3.94823447922299e-05,100.3678798
1.49410549718169,100.4299537
0.273406726708169,100.4923728
0.01462201873465,100.5562968
0.0048607482611307,100.6345788
-0.0634942722123886,100.6984695
0.00975226981409216,100.7764518
0.00487381184057334,100.8365326
-4.64613294592908e-06,100.9002207
-0.0097659166064652,100.966295
-0.0146443745799845,101.0426314
-0.0292884575535037,101.1067246
-0.014635665527023,101.1687455
-1.85056881100054,101.2319753
0.117208981025939,101.3095817
2.58355524196396e-05,101.3720439
0.0244442525789004,101.4369626
3.45446053811038e-05,101.4997772
-0.0292579758681382,101.5606948
0.00492606615834257,101.6256357
4.76081848233001e-05,101.7011586
-0.00971366228869552,101.7621879
0.00982194223778521,101.8265452
0.185607546764266,101.8908033
0.136783776290747,101.9669786
-0.0194618691827726,102.0297602
0.0489018603437081,102.1073012
-0.0878125351298111,102.1697369
0.0293793193966696,102.2316475
0.0196180489231508,102.2935078
0.0196224034496315,102.3577898
-0.00478730452388776,102.4198547
0.00498267500259297,102.4996407
-0.0340754704709263,102.5617171
-1.69911017844445,102.6420106
0.0635894885820352,102.7046254
0.000117280608516346,102.7695611
0.0196528851349971,102.8469564
0.0440713021614778,102.9090528
0.00501315668795854,102.9715312
0.00990032371443927,103.0359693
0.00502186574092001,103.0991747
0.000143407767400738,103.1617566
0.00991338729388191,103.2269974
-0.0975041331796374,103.2906092
-0.805507591153157,103.3667136
0.0343405133733241,103.4298476
0.0148136178998048,103.5087655
-0.0486585900737144,103.5713442
0.0441192019527663,103.6487754
0.00994386897924748,103.7286325
0.00994822350572822,103.790227
-0.00957867196779105,103.8546241
0.00019130755868968,103.9157797
-0.0144527754148296,103.9804382
-0.00468279588834886,104.0420845
-0.160928441361868,104.1197122
0.00997435066461305,104.1821804
-0.00466973230890622,104.2601808
-0.0632591277824255,104.3235151
0.00998741424405525,104.3998403
0.00510895627053598,104.4780937
0.00999612329701671,104.5413001
0.000234852823497445,104.6176175
-0.0144092301500214,104.6799587
1.00610293687646,104.7433494
0.23950572890294,104.8206593
-0.00463054157057918,104.8840212
0.000256625455901549,104.945997
-0.102278082517618,105.0099708
0.029562209508863,105.0858958
0.0149181265353442,105.1484504
-0.00949158143817508,105.2103465
0.000278398088305654,105.2732541
-0.0192484973852136,105.3368568
-0.219439455358733,105.3997801
-0.238966350832252,105.4628682
0.0930692536942286,105.5408458
0.0295970457207098,105.6021128
-0.0338751622528095,105.6662805
0.0589026297736712,105.7285022
0.034492921800152,105.8058705
0.0149660263266327,105.8686786
0.0149703808531134,105.9330417
0.0345059853795942,105.9963764
0.0296275274060753,106.0720139
-1.05923530556744,106.1353665
0.298190923959037,106.1975563
-0.00453909651448248,106.2613822
0.0442933830119983,106.325287
-0.077772574961521,106.3888876
0.0150052170649597,106.4511649
0.0101267590914409,106.5288845
0.0150139261179216,106.5931479
0.0247839056444024,106.6695413
0.0296710726708831,106.7330656
0.0101441771973638,106.7979065
1.62635946922384,106.8716042
0.308004448750325,106.9347609
-0.00449119672319354,106.9969992
0.0345756578032872,107.0751302
-0.0337793626702321,107.1380031
0.0199359293562487,107.2002163
0.000409033882729393,107.2650803
-0.0191178615907899,107.3420769
0.0150661804356909,107.4206116
0.000422097462172033,107.4854425
-0.00933917301134723,107.5592755
-0.106991068484867,107.6370436
0.0346148485416142,107.7143778
0.024853578068095,107.77851
0.0199751200945757,107.8400834
-0.0239658378789436,107.9044909
0.0151010166475376,107.9688301
0.00533974617401833,108.0323246
-0.00930433679950093,108.0967543
0.0102312677269798,108.1730776
-0.00929562774653947,108.2356377
-0.00929127322005874,108.3133808
-0.00440410619357801,108.378468
-0.170415376667097,108.4535268
0.156737415359384,108.5167961
0.0200230198858646,108.5820853
-0.00438668808765463,108.6468702
-0.0141479585611739,108.7111054
0.0298017084653068,108.7737813
-0.00925643700821244,108.8507398
-0.00925208248173126,108.9135229
0.00540070954474947,108.9931266
-0.0043605609287698,109.0567419
0.00540941859771094,109.1208072
0.703655960624192,109.1840956
0.171433752650672,109.2593914
0.0200709196771531,109.3353953
0.0396065242036343,109.398018
-0.087342246269885,109.4738256
0.00543554575659577,109.5377046
0.0152055252830765,109.6030152
0.0152098798095572,109.6684524
0.010331421836038,109.745594
0.0054529638625187,109.8103715
-0.0970817441110001,109.8784402
-1.11758520208452,109.9527369
0.0738254024419613,110.0174882
0.000587569468442073,110.0811517
0.0250059864949228,110.1574201
0.0347759660214035,110.2217702
0.000600633047884269,110.2848747
0.00548780007436545,110.3603251
0.0152577796008462,110.425798
0.0201449466273269,110.5013088
-0.00914757384619236,110.5640715
-0.175158844319712,110.6401095
0.161759572706769,110.7059194
0.0201623647332498,110.769271
0.025049531759731,110.8455355
-0.0335398637137883,110.9114203
0.0445894908126925,110.9894345
0.00553134533917321,111.0530331
0.000652887365653942,111.1305697
-0.00910838310786533,111.1935952
0.0153100339186154,111.2716645
-0.0237481115549034,111.3358053
0.386412492971577,111.4138248
0.332705909998058,111.4773488
0.0104446395245388,111.5407133
0.0202146190510195,111.6056886
-0.0920857139224998,111.6698997
0.025106140603981,111.7463662
0.0153448701304622,111.8114649
0.00558359965694288,111.8899813
-0.00417767081657638,111.953188
-0.0188217537900957,112.0184516
-0.150653336763615,112.0833613
-0.477797419737134,112.1609847
0.0300194347893465,112.2371302
0.0349066018158277,112.3013871
-0.101807793657692,112.3662842
0.0202668733687892,112.4301715
0.0153884153952699,112.5084579
0.00562714492175065,112.5725688
-0.00413412555176862,112.6527328
0.0300499164747121,112.7167803
0.00564020850119329,112.7822486
1.64138675052767,112.8547487
0.332797355054155,112.9334148
0.000770459580635485,112.9973633
0.0203060641071162,113.0725796
0.0154276061335969,113.1514055
0.0203147731600777,113.217819
0.0203191276865589,113.2908677
0.00079223221303959,113.3564943
0.00567939923952032,113.4314341
0.000800941266001054,113.4976625
-0.00407751670751821,113.5733639
-0.0138387871810375,113.6399091
0.0154624423454433,113.7134415
0.0154667968719244,113.7926332
0.0398852138984052,113.8570126
-0.0626494940751141,113.9206445
0.0252454854513666,113.9978379
0.00571858997784735,114.0750098
0.0106057570043281,114.1393912
-0.00403832596919118,114.2037793
0.03014571605729,114.2781893
0.0350328830837707,114.3437311
0.0301544251102515,114.4202389
-1.90831778286327,114.4979632
0.0985225091632129,114.5653015
0.00575342618969366,114.6360879
0.0155234057161744,114.7145448
0.0399418227426556,114.7813305
0.000883677269136296,114.8548963
0.00577084429561703,114.9210873
0.0155408238220978,114.9976642
-0.0186345091514215,115.0631225
-0.0137473421249408,115.1416676
0.72844451240154,115.207997
0.254816054428021,115.2797828
0.000914158954501865,115.3592879
0.0399810134809826,115.4236302
-0.0820849444925367,115.4930231
0.0253412850339441,115.5580665
0.0106972020604248,115.6333818
0.000935931586905525,115.7142397
-0.0088253388866133,115.7921281
0.00582745313986743,115.8696223
0.00583180766634817,115.9339118
1.56345334969283,115.9972315
0.34763739171931,116.0757035
-0.00880356625420964,116.1529474
0.0302632882722711,116.2323714
-0.00391204470124773,116.2976863
0.000975122325233002,116.3732328
0.0156279143517137,116.4393752
-0.00878179362180553,116.5148481
0.000988185904675198,116.5801748
0.0156409779311559,116.6527223
0.0205281449576367,116.7180676
1.51955593698412,116.7939923
0.386747791510599,116.8600922
0.0156583960370793,116.9384118
0.02054556306356,117.0170374
0.00101866759004077,117.0823046
0.0010230221165215,117.1494787
0.0156758141430022,117.2225853
-0.00873389383051659,117.2878856
0.00591889819596414,117.3578757
0.0156888777224449,117.4342022
0.0108104197489256,117.5003072
1.48542414927541,117.5770836
0.372147253801887,117.6423628
0.0157062958283678,117.7076666
0.035241900354849,117.786178
-0.0379959326186703,117.8524246
0.0157193594078104,117.9278078
0.0254893389342912,117.9932677
0.0157280684607719,118.0674723
0.0108496104872526,118.1449139
0.00597115251373337,118.2114485
0.0157411320402145,118.2850578
-0.697145138433305,118.3523096
0.093874841093176,118.4278338
0.0304026331196567,118.4951545
-0.0330695748538625,118.567618
0.0401769671726182,118.6449233
0.00600163419909894,118.7120803
0.00600598872558011,118.7869812
0.0108931557520608,118.8529817
0.00113188527854158,118.9267493
0.0157846773050223,119.0049801
-0.946125030668497,119.0828095
0.0402074488579838,119.150155
0.00114930338446451,119.2239284
-0.0623229045890543,119.2911968
0.0255720749374264,119.3632326
-0.00372044553609285,119.4434177
0.00116672149038788,119.5091388
0.0109367010168686,119.5846752
-0.00859019445665066,119.6509461
0.0109454100698301,119.7275298
-0.648229922903689,119.7979053
0.059782244122792,119.8664203
0.0109584736492727,119.933193
0.0256112656757534,120.0077802
0.0451468702022342,120.0764159
0.0207371622287149,120.147958
0.00121026675519564,120.2254237
0.0305114962816768,120.2934836
0.0353986633081576,120.3650196
-0.0134251071653617,120.442271
1.53443080986112,120.5086394
0.3430289143876,120.5841674
-0.00364641858591952,120.6515083
0.0354204359405612,120.7242219
-0.0573486470329576,120.7904856
0.0207807074935231,120.8641476
0.00613662452000385,120.9314342
0.00125816654648458,121.0042144
0.00614533357296532,121.0815693
0.00126687559944605,121.1488652
-0.00849439487407322,121.2239853
-0.223333790347592,121.3024339
0.299131501678889,121.3698322
0.0208155437053694,121.4429701
0.0452339607318502,121.5105024
-0.0670663722416691,121.5839391
0.0257114197848116,121.6522241
0.0257157743112923,121.7263324
0.0257201288377735,121.7936267
0.0306072958642543,121.8698108
-0.00356803710926501,121.9376134
0.00131912991721572,122.0126639
-0.760395265556304,122.0878034
0.0306247139701772,122.1562073
0.00621500599665792,122.2287179
-0.0426087644768609,122.2960251
0.0306377775496198,122.3688986
0.00622806957610056,122.4471228
-0.00841601339741871,122.514172
-0.00352884637093798,122.5878107
-0.00840730434445724,122.6563607
-0.0181685748179765,122.730074
1.5394529672085,122.7974236
0.343168259234985,122.8702073
-0.0181555112385339,122.9375912
0.0257941557879469,123.0130618
-0.0572093021855724,123.0910647
0.00627161484090832,123.167775
0.00139315686738906,123.2453678
0.00628032389387023,123.3127018
0.00628467842035096,123.3872501
0.0062890329468317,123.4556349
-0.0132378625266876,123.5258773
1.67621961699979,123.5932172
0.396927096526274,123.6654652
-0.00345917394724538,123.7337332
0.0258420555792358,123.8077835
-0.0425129648942835,123.8762634
0.0258507646321973,123.9504567
0.020972306658678,124.0264177
0.0258594736851587,124.1043215
0.0112153907116395,124.172658
0.00633693273812019,124.2439664
0.0307553497646014,124.3123828
-0.159669983208918,124.3851034
0.0795921838175628,124.454532
0.0112371633440436,124.5255697
0.0307727678705243,124.5943825
-0.013168190102995,124.6688139
0.0210158519234858,124.7365452
0.0161373939499669,124.8071372
0.0259073734764477,124.884495
0.0014976655029284,124.9526863
0.0307988950294091,125.0254029
0.0259204370558899,125.0939496
0.548385729082371,125.1668337
0.255421333608851,125.2349009
-0.00336337436466749,125.3069468
0.0210550426618132,125.3760371
0.025942209688294,125.4505635
0.0112981267147747,125.5282219
0.0161852937412554,125.596049
0.00154121076773617,125.6710816
-0.0179856847057831,125.747399
1.3638546073207,125.8169192
0.362882399347179,125.8879941
-0.00820699612634046,125.9568932
0.0113286084001403,126.02812
-0.061909224573379,126.09634
0.00157169245310174,126.1677644
0.0113416719795825,126.2372544
0.0113460265060636,126.3074745
0.0308816310325444,126.3803284
-0.00329370194097489,126.4636884
-1.18004715991449,126.5329125
0.104136882111987,126.6042171
-0.0032806383615327,126.6736265
-0.00327628383505196,126.7468654
0.0260249456914292,126.8249018
0.0113808627179099,126.8962659
0.00161959224439068,126.968258
-0.00814167822912859,127.0374902
-0.0130201362026479,127.1109998
-0.164382969176167,127.1794754
-0.130198927149686,127.2532096
0.0407038648767948,127.3308239
0.0309425944032755,127.4007783
-0.0471780510702438,127.471784
0.011420053456237,127.5491599
0.0211900329827177,127.6288026
0.0211943875091984,127.6978191
0.0163159295356792,127.7715995
-0.0276250284378396,127.8413684
0.00655901358864108,127.9108631
-1.00417881938488,127.9808155
0.0895755351416025,128.0515757
0.00168926466808328,128.1223095
0.00657643169456401,128.1937474
0.0505260987210447,128.2697551
0.00170232824752592,128.3389376
-0.00317612972599335,128.411547
0.0163594748004874,128.4890533
-0.0129330456730319,128.5689893
0.109141621353449,128.6402437
0.28492722587993,128.710276
0.0359081429064103,128.7807754
0.0359124974328915,128.852815
-0.0763878355406278,128.9236518
0.016389956485853,128.995318
0.0115114985123337,129.0700634
0.00663304053881442,129.1483818
-0.00312822993470485,129.2257809
-0.00800668790822412,129.3041383
-0.188666395881743,129.3731077
-0.0128807913552622,129.446892
0.00177200067121852,129.5180591
0.0164247926976993,129.5899478
-0.08122710277582,129.6658555
0.00666787675066072,129.7376468
0.00667223127714145,129.8107288
0.0115593983036226,129.8854068
-0.00796749716989664,129.9568272
0.0115681073565841,130.0259485
-0.00795878811693518,130.0962741
0.158061191409546,130.1696511
0.353378045936026,130.2456352
-0.012828537037493,130.323959
0.0262383174889882,130.3974851
-0.0469995154845311,130.469087
-0.00793266095805034,130.5446242
0.00672013106843039,130.617985
0.00184167309491112,130.6902048
0.00672884012139185,130.7650447
0.0116160071478726,130.8386132
-0.0176765133256462,130.9087145
0.333890341200834,130.9835555
0.348543133227315,131.0545972
-0.00789782474620404,131.1244032
0.0507002797802767,131.2008532
-0.0420688031932426,131.2742326
0.0214121138332382,131.3445045
0.0116508433597193,131.419966
0.00677238538620006,131.4930809
0.0165423649126808,131.5642497
-0.0273985930608385,131.6410533
-0.134816113534358,131.719186
0.187453865992123,131.7915353
0.0263254080186037,131.8628934
0.0165641375450845,131.9392543
-0.0859705704284344,132.0107375
0.0312212840980464,132.0823111
0.0019287636245271,132.1580152
0.0116987431510078,132.2293038
-0.0322422148225114,132.3003248
0.00682463970396929,132.3778022
-0.44238975576955,132.448584
0.0458958487569312,132.5210826
0.0166033282834119,132.612402
-0.0712829421901073,132.6843781
0.0117292248363734,132.756273
0.0166163918628541,132.8313833
-0.00779331611066514,132.9219334
-0.0224373990841844,132.9939188
0.602566955442297,133.0657582
0.343782247468778,133.1412644
0.00687253949525823,133.2130312
-0.00288873097826103,133.2852423
-0.0517125014517803,133.3582961
0.0117684155747004,133.4296184
-0.0126412923988188,133.5017988
0.0166599371276623,133.5750076
-0.00774977084585693,133.6572861
0.0020202086806238,133.7282142
-0.803639499292895,133.800101
0.0606226677335853,133.8717494
-0.012615165239934,133.9432288
-0.0174936232134533,134.0161509
0.0264560438130279,134.0895049
0.0215775858395086,134.1638606
-0.00771493463401063,134.2381273
-0.0028277676075299,134.3162625
-0.00282341308104916,134.3913216
-0.217662808554568,134.4636511
0.0899587334719123,134.5365594
0.0557834004983935,134.6109145
-0.0223372449751258,134.6843938
-0.0320985154486451,134.755964
0.0264995890778357,134.8315516
0.0216211311043164,134.9253253
0.0167426731307971,134.9979624
0.00698140265727787,135.0811471
0.016751382183759,135.1548005
0.48062292421024,135.2379152
0.173010091236721,135.3101714
0.0216472582632012,135.3811436
0.00212036278968197,135.4553401
0.0265387798161627,135.5480776
0.0216603218426434,135.6255303
0.0216646763691246,135.703604
0.0363174683956053,135.7758972
0.0314390104220861,135.8615124
-1.11601757255143,135.9400428
0.0705102194750475,136.0161574
0.0265692615015283,136.08981
-0.056434196471991,136.1624121
0.0265779705544902,136.2366536
-0.00271454991902909,136.3137319
0.00217261710745165,136.3882102
0.00217697163393238,136.4690659
-0.0173499238395869,136.5424273
-0.0857049443131062,136.6158098
-0.315192777286625,136.6903852
0.0363740772398558,136.764665
0.00708155676633648,136.8472514
-0.0661562762071828,136.938366
-0.0124409841807021,137.0167977
-0.00267100465422132,137.0899255
0.00221616237225941,137.1631923
-0.0173107331012599,137.2360499
-0.0173063785747787,137.3153361
-0.149137961548298,137.3879706
0.197546080478183,137.4725238
-0.00264487749533648,137.5647719
0.0461876020311442,137.6581688
0.016895081557625,137.7528898
-0.0221630639158943,137.8443949
0.0266694156105869,137.9226839
0.0266737701370676,138.0165319
0.00714687466354835,138.1089169
0.256174666690029,138.1823805
0.00715558371650982,138.2571655
0.0511052507429905,138.3298785
-0.0611950822305287,138.4235329
0.0364655222959525,138.4966285
0.00229018932243319,138.5803491
0.00717735634891392,138.6750057
-0.00746672662460535,138.7539945
0.124373565401875,138.8282544
0.324573232428356,138.9030631
0.0120775869548368,138.9764968
0.046261628981318,139.0509526
-0.0465074539922012,139.1240071
0.0316219005342795,139.2072919
0.0120950050607602,139.2805658
-0.00254907791275905,139.3541729
-0.00254472338627831,139.428008
0.00234244364020242,139.5214992
-1.50155945183332,139.5989282
0.0755933401931643,139.6905504
0.0414180072196451,139.7646552
-0.0659995132538742,139.8390359
0.0121298412726065,139.9145085
0.0121341957990873,139.9893294
0.017021362825568,140.0718042
0.0170257173520492,140.165431
0.0023816343785299,140.2419422
-1.71636401109499,140.3358429
0.0463356559314914,140.4298216
0.0121603229579721,140.5083551
-0.0122493850155472,140.5815782
0.00728621951093356,140.6549432
0.00240776153741473,140.7305879
-0.0171191339361045,140.80508
-0.0024663419096238,140.8795167
-0.0317588623831431,140.9527558
1.05222986714334,141.0304645
0.339343596669818,141.1223886
-0.0122145488037009,141.2011325
0.0317351182227803,141.295938
-0.012205839750739,141.3705429
0.00244695227574176,141.4446158
-0.0073143181977775,141.5190576
0.00245566132870323,141.5934315
0.017108453355184,141.6880443
-0.114723129618335,141.7822436
0.354031224908146,141.8765482
0.0171215169346266,141.9512351
0.0220086839611073,142.0319518
0.0317786634875881,142.1079182
0.0220173930140688,142.1863661
0.00737331004054953,142.2608192
0.0562057895670303,142.335158
0.00249920659351144,142.4107126
-1.13030893888001,142.4922442
0.134343853146473,142.5880101
0.0318091451729536,142.6806945
-0.0267802503005656,142.7745292
0.0269350417259151,142.850445
0.00252533375239583,142.930811
0.017178125778877,143.0081835
0.0318309178053577,143.0825025
0.00742120983183847,143.1590207
0.0855505643583192,143.234694
0.2613361688848,143.3090263
0.0220827109112807,143.3849351
0.0367355029377614,143.4607791
0.0172086074642426,143.5452086
0.0220957744907233,143.6208615
0.012334504017204,143.6963412
-0.00719239145631523,143.7713014
-0.0071880369298345,143.8452607
0.0123475675966462,143.9237997
-0.495460577876873,144.0190803
-0.0169405983503919,144.1138992
0.0221262561760889,144.2079792
0.0123649857025696,144.2862363
0.00260371522905034,144.3803809
0.00260806975553107,144.458344
0.0074952367820118,144.5524807
-0.00714884619150746,144.6338267
1.54558988333497,144.728362
0.139344237861454,144.8220916
0.00751265488793518,144.9159761
-0.0461939280855841,145.0088318
0.00752136394089664,145.1039281
-0.0168883440326226,145.1969355
0.00753007299385811,145.2924369
0.00265161502033928,145.3855303
1.56515596954682,145.48074
0.154027511573301,145.5740218
0.0368443660997815,145.6535423
-0.0266278418737378,145.7302204
0.0124390126527429,145.8070707
0.0319746171792237,145.9008484
-0.00220071579429515,145.9965951
0.00756926373218558,146.0753878
0.0417533057586663,146.152835
0.100351410285147,146.230179
0.222426077311628,146.3244629
0.0271179318381085,146.4185002
-0.0558855261354108,146.5129864
0.0124782033910704,146.6071657
0.0124825579175512,146.7018405
0.00760409994403188,146.7965083
0.0124912669705126,146.876577
-1.16914500350301,146.9703607
0.0173827885234741,147.0654903
0.0271527680499548,147.1588115
0.032039935076436,147.2388227
0.0369271021029167,147.3309933
-0.00213104337060255,147.4253193
0.0125217486558782,147.5055747
0.0271745406823589,147.6001931
-0.63200079229116,147.694811
-0.0167620627646796,147.7897455
0.0271876042618016,147.8672566
0.00277789628828229,147.9627361
0.00278225081476302,148.0574414
0.0174350428412438,148.1529951
0.00279095986772449,148.2465603
-0.00697031060579478,148.3421097
-0.475715956079314,148.4363901
-0.00696160155283287,148.5327353
0.0369880654736479,148.609388
0.00281273250012859,148.6903332
0.0223483370266093,148.7852772
-0.00206137094690995,148.8797857
-0.00205701642042921,148.9760772
0.00771296310605152,149.0557366
0.115139192632533,149.1484298
0.105377922159013,149.2284618
0.0321400891854942,149.3214797
-0.0166836812880251,149.3990803
0.00285192323845562,149.4798257
0.0223875277649364,149.5568202
0.0223918822914171,149.6369817
0.0175134243178983,149.7163983
0.017517778844379,149.7947544
0.46674088337086,149.8737319
0.22260461289734,149.9671812
0.0126480299238212,150.0583515
-0.0264101155496981,150.1519803
0.00289111397678266,150.2458209
-0.00198734399673617,150.3408539
0.00778263552974456,150.4350705
0.0126698025562253,150.5298438
1.55564290708271,150.6224982
0.173811324109187,150.7010327
-0.00196557136433251,150.7948846
-0.0263752793378518,150.8864733
-0.0019568623113706,150.9641129
0.00781311721511013,151.0595042
0.0175830967415909,151.1539126
0.0029390137680716,151.2332205
-0.0312363192054477,151.3279123
0.256853972821033,151.4236243
0.00783488984751379,151.5011746
0.00783924437399497,151.5941775
-0.0116876510995243,151.6902375
-0.00680048407304357,151.7689073
-0.0116789420465628,151.8633201
-0.0214402125200821,151.9575083
0.378954767006399,152.0517433
0.242240371532879,152.1470119
-0.0165443364406395,152.2245244
0.00299126808584127,152.3208311
-0.016535627387678,152.4152373
0.0176484146388027,152.4951941
0.00788714416528347,152.5894851
0.0127743111917642,152.6851128
1.46785679071824,152.7796868
0.159267395244726,152.8581803
0.0274358122712068,152.9532013
0.00790891679768757,153.0306578
0.0127960838241683,153.1070289
0.042097313350649,153.2010494
0.0128047928771298,153.2786313
0.0030435224036105,153.3569049
1.10168068943009,153.4368652
0.222778793956572,153.5152509
0.0128222109830531,153.5936387
-0.00182187199046613,153.671924
0.0518934200360146,153.7492934
0.0226008995624953,153.8266422
0.0128396290889761,153.9053187
0.0323752336154572,153.9825733
-0.709807911858062,154.0609093
0.144688630168419,154.140398
0.0372711096948994,154.2187388
-0.0701464107786198,154.2973296
0.0470454437478609,154.3756647
0.0128701107743416,154.4686523
-0.00177397219917719,154.5612394
-0.153136805172696,154.6543032
0.354680049353784,154.7484157
-0.00664372111973499,154.844293
-0.0994128040932543,154.940304
0.0177790504332265,155.034214
-0.00663065754029279,155.1131482
0.00802213448618838,155.2059371
-2.00369226098733,155.2860875
0.0812730310391498,155.3645067
0.0275664480656306,155.4437051
-0.104265134907889,155.5221436
0.037340782118592,155.6009584
-0.00171736335492723,155.6805303
0.032466678671554,155.7802554
-0.0358883418019653,155.8736493
0.359623825224515,155.9679854
-0.0212311952490039,156.059592
-0.0505237157225231,156.1403254
0.0422540763039576,156.2196689
0.0178443683304383,156.2986761
0.00808309785691952,156.3779825
-0.00167817261659975,156.4586769
-0.00167381809011902,156.537614
-0.206747588563638,156.6160638
0.0325145784628424,156.699227
0.0325189329893232,156.7773452
-0.0260704624841961,156.8576612
0.0325276420422851,156.9350235
0.0325319965687658,157.0193352
0.00812228859524655,157.0980948
0.00812664312172728,157.1769308
0.037427872648208,157.2553229
0.0325494146746887,157.3344921
-1.74967279329883,157.4124424
0.0765034362276507,157.4912855
0.0325624782541314,157.5723268
-0.0650894172193879,157.6541465
0.0276883748070929,157.7328755
0.00327866683357358,157.8111174
0.00328302136005432,157.8905566
0.027701438386535,157.9694174
0.00817454291301623,158.0477838
-0.00158672756050304,158.1272892
0.271855126965978,158.2090507
0.374398543992458,158.2898258
-0.00157366398106085,158.3701535
0.0228447530454199,158.454506
0.0277319200719006,158.5338439
-0.0162090379016182,158.6141918
0.00332656662486253,158.6987339
-0.00155189134865674,158.7783134
-0.00154753682217601,158.8721745
0.0375193177043047,158.951891
-0.00153882776921455,159.0454963
-0.138253223242734,159.1405414
-0.00641293121625264,159.2337164
0.0131226733102281,159.3260116
0.00824421533670883,159.4175116
-0.0112826801368104,159.514003
0.00337011188967029,159.6085039
0.00337446641615102,159.7024223
-0.00150399155736824,159.799657
0.00338317546911293,159.8933176
0.0131531549955937,159.973206
0.0278059470220744,160.0544868
0.0571071765485551,160.1360245
-0.0210134689249641,160.2360451
0.0278190106015166,160.3288392
0.00829211512799732,160.4089467
0.0229449071544785,160.5026311
0.0180664491809592,160.5959077
-0.00634325879256004,160.6935408
-1.62743265426608,160.7880953
0.0620248252604014,160.8693606
0.00831824228688216,160.9500796
-0.0307399031866371,161.0329365
0.00832695133984407,161.117301
-0.0014343191336752,161.2120942
0.0229840978928055,161.3044139
0.0229884524192863,161.3974427
0.003461556945767,161.491546
-1.45161221352775,161.5719075
0.140189015998728,161.6522638
-0.00629100447479036,161.732628
0.0132446000516904,161.8128838
0.0132489545781711,161.8925691
0.0132533091046518,161.9742288
0.00837485113113257,162.058191
-0.0062692318423867,162.1406602
-0.00626487731590597,162.2230191
-0.0257917727894248,162.324943
0.218353206737056,162.4188081
-0.00136900123646333,162.514823
-0.0501927717099826,162.6089564
0.00840533281649813,162.7046602
0.0181753123429789,162.7980474
-0.0160000206305404,162.8941081
0.589473083895941,162.9884979
0.242797750922422,163.0835023
0.00354429294890224,163.1655437
-0.069693540024617,163.2455747
0.0133186270018637,163.325672
0.00355735652834444,163.4247937
0.00356171105482517,163.520682
-0.152683934418694,163.6021943
0.340484482607787,163.6829745
0.00845758713426781,163.7750064
0.0279931916607485,163.8689024
0.0426459836872293,163.9642526
0.02311908821371,164.0456728
0.00359219274019074,164.1261215
-0.00128626523332809,164.2085224
-0.772766285706847,164.2896202
0.169620881319633,164.3811374
0.0280236733461141,164.4770595
-0.0354485346274052,164.5719958
0.0231495698990756,164.6674019
-0.0110257630744437,164.7488386
0.0280410914520375,164.8307007
0.0182798209785182,164.9329602
0.223362300504999,165.0269406
-0.0207739699685203,165.1231914
0.0329413220579604,165.2178522
0.0134144265844411,165.3006052
0.00853596861092187,165.3830556
0.00854032313740305,165.4833084
0.00854467766388378,165.5633294
0.00854903219036451,165.6458881
-1.76390755078315,165.7275299
0.096448366243326,165.8106685
-0.0109691542301933,165.9056908
-0.0353788622037126,165.9877439
0.00857080482276862,166.0701349
0.0232235968492494,166.1512603
-0.0158345486242699,166.2513836
-0.0207130065977892,166.3443469
0.00370541042869155,166.4381786
-0.0646496100448277,166.5225682
0.013479744481653,166.6068955
0.00860128650813419,166.7037655
0.0232540785346149,166.7973105
0.00860999556109565,166.8893021
-0.00603408741242362,166.9822611
0.00373589211405712,167.0771381
0.0232714966405378,167.1694651
0.00862741366701858,167.2662793
0.291834893193499,167.3585705
-0.00112950228001951,167.4523363
0.0477029772464612,167.5467704
0.023293269272942,167.6405255
0.0232976237994227,167.7332866
0.0233019783259034,167.8268432
-0.00110772964761585,167.9194459
0.00866224987886532,168.0114689
-0.201294333094654,168.0949432
0.125858458931827,168.1769693
-0.00597312404169248,168.2604656
-0.0401484570152117,168.3538988
0.023332460011269,168.4473526
0.00868837703774972,168.5402774
0.00869273156423045,168.6344281
-0.0205997889092884,168.7254177
0.785068628117192,168.8203327
0.121010482643673,168.9039818
0.0184757746701538,168.9853224
-0.0596448708033654,169.0869313
0.0136016712231153,169.1824498
-0.00104241175040398,169.2774386
-0.0156864947239228,169.3588494
0.0233803598025579,169.4417881
0.00385346432903866,169.5414474
0.252881256355519,169.6258825
-0.0254347016179999,169.7102565
0.00874934040848085,169.7935476
-0.0156603675650384,169.8870524
0.0185236744614428,169.9686459
-0.00588603351207651,170.0531057
0.0185323835144042,170.1533781
-0.00587732445911504,170.2377644
-0.167005782432634,170.3414107
0.257803259593846,170.4264035
-0.0205126983796728,170.5271189
-0.0449224063531917,170.6120124
0.00879288567328906,170.7131093
0.0136800526997698,170.8078162
0.0136844072262505,170.902396
0.0185715742527313,170.9963089
-0.186502196220788,171.0810661
0.335963095805693,171.1818493
-0.0107122371678261,171.2656005
0.0332374298586546,171.3703831
0.0234761593851354,171.4663637
-0.000933548588383903,171.5601928
0.0137192434380968,171.6531365
0.0381376604645776,171.7484381
-0.0936939225089417,171.8310104
0.145568244517539,171.914168
0.0039710365440202,172.0142336
0.0381550785705009,172.0977206
0.0235109955969817,172.1821564
0.0235153501234624,172.2826879
0.0186368921499431,172.377215
-0.00577281582357614,172.4716473
0.018645601202905,172.5580715
-1.49990473177061,172.6586938
0.0137714977558665,172.7528711
0.0284242897823472,172.845619
0.023545831808828,172.9298962
0.0137845613353087,173.0311303
0.00402329086178943,173.1147252
-0.000855167111729394,173.1978516
-0.00573362508524866,173.2825797
-1.68541677055877,173.375971
0.0235719589677128,173.4701008
0.0333419384941935,173.5555991
0.0186978555206743,173.658934
0.004053772547155,173.7554555
-0.000824685426363825,173.8482709
-0.00570314339988309,173.9445478
0.00406683612659764,174.0369999
0.228680565653078,174.1308848
0.0138411701795591,174.2262764
0.0138455247060398,174.3186729
0.0284983167325206,174.4125224
0.0138542337590017,174.5060265
-0.0691492242145175,174.5993382
-0.0886761196880368,174.6919453
0.370312609838444,174.7832151
-0.230268973135075,174.8675255
-0.0154208686085946,174.9509912
-0.0251821390821139,175.0364752
0.0968925279443673,175.1271144
-0.000759367529151955,175.2114191
0.0529559244973288,175.3147835
0.11643684152381,175.4059654
-0.000746303949709759,175.5000751
0.013906488076771,175.5951809
-0.435307907396748,175.6815224
0.00414957212973288,175.7809441
0.0529820516562136,175.8757249
0.0871660936826943,175.9700703
-0.0153686142908249,176.0627298
-0.723372072264344,176.1601
0.302022907262137,176.2540464
-1.93430086321138,176.3398336
-3.2135933836849,176.4418612
1.58621565834158,176.5266199
1.78153251286806,176.631635
1.78153686739454,176.7255477
1.78154122192102,176.8197836
1.7815455764475,176.9057307
-3.21356725652602,177.0088575
1.78155428550046,177.1018997
1.78155864002694,177.1962429
-3.21355419294657,177.2874311
-3.21354983842009,177.384477
1.78157170360639,177.4767092
-3.21354112936713,177.5705706
-3.21353677484065,177.6644907
-3.21353242031417,177.7499461
1.78158912171231,177.8518387
1.78159347623879,177.9456966
-3.21351935673473,178.0387806
-3.21351500220825,178.1329293
1.78160653981823,178.2252176
-0.791631293155286,178.3213559
0.00427149887119516,178.4066519
1.78161960339768,178.5096589
-0.147086979575843,178.6037394
-0.00548106254936265,178.6921737
-0.0201251455228819,178.7939288
-0.0201207909964012,178.8873543
-0.0152336239699205,178.9807155
-0.0103464569434393,179.0739928
-0.00545928991695854,179.166761
-0.0152205603904778,179.2604594
-0.00545058086399708,179.3467824
-0.0152118513375163,179.4505469
-0.0152074968110356,179.5459466
-0.00543751728455488,179.6411576
-0.00543316275807371,179.7338741
-0.015194433231593,179.8302189
-0.0103072662051122,179.9232849
-0.0103029116786315,180.0086277
-0.000532932152150778,180.1146681
-0.02005982762567,180.2098157
-0.00540703559918931,180.3033845
-0.0151683060727081,180.3907589
-0.0200467640462274,180.4893645
-0.00539397201974667,180.5960654
-0.0200380549932659,180.6919823
-0.0151508879667852,180.7863284
-0.0151465334403045,180.8819315
-0.0249078039138237,180.9705678
-3.21338001188734,181.0695902
1.78174153013914,181.1634261
1.78174588466562,181.2576006
-3.2133669483079,181.350252
0.42921553121858,181.4435034
-0.210428551754939,181.5368044
-0.0541741972284582,181.6329792
-0.044404217701977,181.7179367
-0.0199858006754963,181.8213525
-0.0199814461490155,181.9083555
-0.0102114666225348,182.0116877
0.0142069504039459,182.1046071
-0.00043713256957334,182.1993441
-0.000432778043092608,182.289416
0.0191028264833886,182.382866
0.0093415560098693,182.4789998
-0.00530252696364997,182.5728
0.00935026506283076,182.6811631
0.0093546195893115,182.7881121
0.0191245991157922,182.8856144
-0.000402296357727039,182.9729696
-0.00528075433124586,183.0614545
-0.00527639980476513,183.1652618
0.0093763922217156,183.2732022
0.00938074674819633,183.3695309
0.00450228877467707,183.4590481
-0.0101417941988422,183.8525658
0.00939381032763853,183.9399837
0.0191637898541197,184.0486353
-0.00524591811939956,184.1431573
-0.0150071885929188,184.2524573
-0.0198856465664381,184.3414639
-0.0149984795399574,184.4421164
0.00453712498652337,184.5365924
0.0045414795130041,184.6334727
-0.00521979096051473,184.7270268
-0.010098248934034,184.8216473
-0.00521108190755326,184.9321143
